Freq[Hz]     dBSPL  Phase[Deg]
5.00000     23.510    -6.494
5.07273     23.592   -12.407
5.14651     23.675   -18.320
5.22137     23.758   -24.231
5.29732     23.840   -30.141
5.37437     23.921   -36.095
5.45254     23.993   -42.426
5.53185     24.065   -48.756
5.61231     24.138   -55.085
5.69394     24.210   -61.413
5.77676     24.288   -67.965
5.86079     24.370   -74.713
5.94604     24.452   -81.460
6.03252     24.534   -88.206
6.12027     24.619   -95.055
6.20929     24.711  -102.221
6.29961     24.804  -109.387
6.39124     24.896  -116.551
6.48420     24.986  -123.802
6.57851     25.062  -131.386
6.67420     25.137  -138.969
6.77128     25.214  -146.552
6.86977     25.283  -154.297
6.96969     25.340  -162.300
7.07107     25.398  -170.301
7.17392     25.455  -178.300
7.27827     25.541   173.374
7.38413     25.633   164.955
7.49154     25.727   156.536
7.60050     25.814   147.976
7.71105     25.885   139.138
7.82321     25.957   130.303
7.93701     26.030   121.440
8.05245     26.109   112.183
8.16958     26.188   102.929
8.28841     26.266    93.676
8.40896     26.352    84.027
8.53128     26.438    74.355
8.65537     26.524    64.684
8.78126     26.585    54.614
8.90899     26.643    44.524
9.03857     26.705    34.402
9.17004     26.805    23.892
9.30342     26.906    13.383
9.43874     26.997     2.740
9.57603     27.067    -8.187
9.71532     27.137   -19.112
9.85663     27.663   -28.901
10.0000     28.405   -38.146
10.1455     29.238   -47.203
10.2930     30.702   -55.013
10.4427     32.166   -62.816
10.5946     33.077   -72.336
10.7487     33.712   -82.713
10.9051     34.202   -93.502
11.0637     34.339  -105.311
11.2246     34.475  -117.118
11.3879     34.305  -129.877
11.5535     34.135  -142.645
11.7216     33.568  -155.807
11.8921     32.884  -169.090
12.0650     31.744   177.806
12.2405     30.322   164.825
12.4186     27.474   158.239
12.5992     23.348   157.368
12.7825     21.552  -158.999
12.9684     22.080   -70.913
13.1570     24.362   -56.528
13.3484     28.197  -107.383
13.5426     31.239  -133.406
13.7395     33.788  -143.884
13.9394     35.437  -155.891
14.1421     36.788  -168.412
14.3478     37.382   178.979
14.5565     37.800   166.430
14.7683     37.603   154.203
14.9831     36.905   142.576
15.2010     35.577   131.709
15.4221     32.977   124.093
15.6464     29.899   121.926
15.8740     26.267   153.225
16.1049     25.888  -178.977
16.3392     28.611  -154.523
16.5768     32.073  -151.883
16.8179     34.656  -153.682
17.0626     35.908  -159.979
17.3107     36.318  -164.145
17.5625     36.436  -165.248
17.8180     36.287  -162.722
18.0771     36.916  -156.492
18.3401     37.983  -151.689
18.6068     39.388  -149.216
18.8775     40.933  -151.752
19.1521     42.115  -157.388
19.4306     42.885  -164.562
19.7133     43.201  -172.573
20.0000     43.042   179.624
20.2909     42.201   173.897
20.5860     41.089   171.325
20.8855     39.901   173.905
21.1893     39.095  -178.390
21.4975     39.462  -168.864
21.8102     40.461  -164.265
22.1274     41.380  -164.669
22.4492     42.053  -167.691
22.7758     42.278  -170.983
23.1071     42.099  -172.194
23.4432     41.969  -169.801
23.7841     42.387  -164.869
24.1301     43.615  -161.494
24.4811     45.129  -162.738
24.8372     46.502  -168.091
25.1984     47.395  -175.568
25.5649     47.748   176.856
25.9368     47.815   170.992
26.3141     47.712   168.158
26.6968     47.707   168.325
27.0851     48.118   169.634
27.4791     48.805   169.980
27.8788     49.571   169.027
28.2843     50.066   167.976
28.6957     50.551   167.894
29.1131     51.155   168.597
29.5365     51.933   168.812
29.9661     52.620   167.330
30.4020     53.106   165.129
30.8442     53.290   164.020
31.2929     53.537   164.936
31.7480     53.952   167.098
32.2098     54.614   167.880
32.6783     55.323   166.547
33.1536     55.761   164.707
33.6359     56.076   164.499
34.1251     56.598   165.889
34.6215     57.453   166.375
35.1250     58.455   163.892
35.6359     59.030   159.634
36.1543     59.306   156.048
36.6802     59.399   155.180
37.2137     59.884   155.795
37.7550     60.655   155.552
38.3041     61.275   153.958
38.8613     61.826   152.241
39.4265     62.301   151.286
40.0000     62.985   150.622
40.5818     63.682   149.403
41.1721     64.208   147.676
41.7710     64.662   146.097
42.3785     65.225   144.794
42.9949     65.859   143.491
43.6203     66.371   142.166
44.2548     66.974   140.884
44.8985     67.638   139.443
45.5515     68.353   137.656
46.2141     68.942   135.726
46.8863     69.549   133.831
47.5683     70.294   132.012
48.2602     71.050   130.325
48.9621     71.716   128.688
49.6743     72.429   126.803
50.3968     73.184   124.743
51.1299     73.922   122.675
51.8736     74.796   120.096
52.6281     75.450   116.753
53.3936     76.237   113.316
54.1702     77.105   109.781
54.9581     77.766   105.569
55.7575     78.478   101.240
56.5685     79.143    97.436
57.3914     79.752    93.448
58.2261     80.501    88.693
59.0730     81.095    83.757
59.9323     81.698    78.771
60.8040     82.174    73.616
61.6884     82.757    68.376
62.5857     83.223    62.868
63.4960     83.545    57.193
64.4196     83.824    51.641
65.3566     84.126    46.067
66.3073     84.298    40.547
67.2717     84.398    35.342
68.2502     84.398    30.473
69.2429     84.398    25.962
70.2501     84.315    21.699
71.2719     84.398    17.646
72.3086     84.398    14.052
73.3603     84.366    10.768
74.4274     84.274     7.706
75.5099     84.298     4.928
76.6083     84.198     2.234
77.7226     84.198    -0.302
78.8531     84.066    -2.578
80.0000     83.973    -4.678
81.1636     83.898    -6.517
82.3442     83.983    -8.274
83.5419     83.797    -9.847
84.7570     83.842   -11.173
85.9899     83.798   -12.339
87.2406     83.798   -13.658
88.5096     83.929   -14.830
89.7970     83.998   -15.986
91.1031     84.098   -17.345
92.4282     84.198   -18.725
93.7726     84.104   -20.088
95.1366     84.311   -21.437
96.5204     84.433   -22.808
97.9243     84.438   -24.224
99.3486     84.598   -25.646
100.794     84.575   -26.879
102.260     84.598   -28.012
103.747     84.698   -28.987
105.256     84.798   -29.953
106.787     84.898   -30.770
108.340     84.917   -31.668
109.916     85.198   -32.432
111.515     85.433   -33.449
113.137     85.598   -34.321
114.783     85.798   -35.441
116.452     85.998   -36.559
118.146     86.136   -37.549
119.865     86.295   -38.332
121.608     86.440   -39.922
123.377     86.698   -40.972
125.171     86.798   -41.923
126.992     86.833   -42.774
128.839     87.198   -43.704
130.713     87.398   -44.770
132.615     87.719   -45.994
134.543     87.855   -47.453
136.500     88.098   -48.929
138.486     88.351   -50.410
140.500     88.552   -52.240
142.544     88.682   -53.969
144.617     88.768   -55.465
146.721     88.874   -56.572
148.855     89.031   -57.759
151.020     89.182   -58.915
153.217     89.382   -60.146
155.445     89.565   -61.615
157.706     89.745   -63.284
160.000     89.898   -65.117
162.327     90.015   -66.685
164.688     90.160   -67.879
167.084     90.346   -69.072
169.514     90.555   -70.622
171.980     90.769   -72.549
174.481     90.917   -74.482
177.019     91.041   -76.360
179.594     91.126   -78.004
182.206     91.248   -79.648
184.856     91.412   -81.603
187.545     91.537   -83.566
190.273     91.644   -85.514
193.041     91.819   -87.429
195.849     91.897   -89.645
198.697     91.886   -91.831
201.587     91.985   -93.766
204.520     91.911   -95.800
207.494     91.973   -97.626
210.512     91.836   -99.403
213.574     91.798  -100.936
216.681     91.765  -102.354
219.833     91.698  -103.282
223.030     91.665  -104.020
226.274     91.698  -105.032
229.565     91.598  -105.745
232.905     91.631  -105.991
236.292     91.825  -106.766
239.729     91.967  -108.505
243.216     91.982  -110.349
246.754     91.992  -111.622
250.343     91.939  -112.493
253.984     91.963  -113.714
257.678     91.929  -115.642
261.426     91.743  -117.101
265.229     91.678  -117.695
269.087     91.650  -118.211
273.001     91.557  -118.289
276.972     91.613  -118.686
281.000     91.602  -119.330
285.088     91.560  -119.824
289.234     91.516  -120.044
293.441     91.581  -120.067
297.709     91.718  -120.227
302.040     91.804  -120.634
306.433     91.882  -121.230
310.890     91.984  -121.954
315.412     92.086  -122.845
320.000     92.210  -124.037
324.655     92.260  -125.176
329.377     92.334  -126.190
334.168     92.314  -127.294
339.028     92.298  -128.358
343.959     92.355  -129.510
348.962     92.398  -130.612
354.038     92.396  -131.631
359.188     92.398  -132.681
364.412     92.350  -133.749
369.713     92.291  -134.710
375.090     92.225  -135.596
380.546     92.198  -136.455
386.081     92.171  -137.238
391.697     92.079  -137.948
397.394     91.979  -138.582
403.175     91.885  -139.101
409.039     91.798  -139.535
414.989     91.748  -139.881
421.025     91.674  -140.114
427.149     91.579  -140.238
433.362     91.486  -140.251
439.665     91.398  -140.150
446.060     91.398  -139.944
452.548     91.365  -139.653
459.131     91.298  -139.293
465.809     91.298  -138.897
472.584     91.298  -138.506
479.458     91.351  -138.145
486.432     91.398  -137.817
493.507     91.443  -137.526
500.686     91.498  -137.266
507.968     91.523  -137.035
515.357     91.608  -136.832
522.853     91.736  -136.669
530.458     91.798  -136.578
538.174     91.865  -136.604
546.002     91.950  -136.777
553.943     92.048  -137.119
562.001     92.121  -137.619
570.175     92.198  -138.231
578.469     92.198  -138.881
586.883     92.198  -139.474
595.419     92.198  -139.953
604.080     92.198  -140.316
612.866     92.198  -140.599
621.780     92.198  -140.881
630.824     92.274  -141.248
640.000     92.298  -141.731
649.309     92.298  -142.292
658.753     92.213  -142.839
668.335     92.161  -143.238
678.056     92.094  -143.365
687.919     91.998  -143.209
697.925     91.998  -142.891
708.077     92.073  -142.623
718.376     92.198  -142.582
728.825     92.298  -142.831
739.426     92.326  -143.270
750.181     92.398  -143.696
761.093     92.398  -143.919
772.163     92.398  -143.888
783.394     92.462  -143.744
794.789     92.554  -143.729
806.349     92.643  -144.016
818.078     92.698  -144.585
829.977     92.764  -145.234
842.050     92.798  -145.753
854.298     92.798  -146.127
866.724     92.904  -146.601
879.330     93.026  -147.541
892.120     93.098  -148.890
905.097     93.042  -150.093
918.262     92.865  -151.007
931.618     92.620  -151.234
945.169     92.425  -150.516
958.917     92.398  -149.326
972.864     92.519  -148.722
987.015     92.765  -149.582
1001.37     92.945  -152.044
1015.94     92.950  -155.517
1030.71     92.760  -159.155
1045.71     92.438  -162.444
1060.92     92.038  -165.254
1076.35     91.634  -167.779
1092.00     91.212  -170.348
1107.89     90.757  -172.984
1124.00     90.271  -175.405
1140.35     89.789  -177.495
1156.94     89.365  -179.665
1173.77     89.002   177.518
1190.84     88.613   173.799
1208.16     88.096   169.500
1225.73     87.343   165.196
1243.56     86.455   161.466
1261.65     85.606   158.493
1280.00     84.878   155.691
1298.62     84.219   152.124
1317.51     83.471   147.349
1336.67     82.515   141.776
1356.11     81.439   135.786
1375.84     80.247   128.477
1395.85     78.707   118.551
1416.15     76.387   106.528
1436.75     72.935    94.618
1457.65     68.334    80.253
1478.85     64.100    46.749
1500.36     65.918    -6.750
1522.19     70.866   -44.084
1544.33     74.416   -63.093
1566.79     76.835   -74.127
1589.58     78.720   -81.914
1612.70     80.266   -88.829
1636.16     81.544   -95.141
1659.95     82.621  -100.815
1684.10     83.498  -106.599
1708.60     84.123  -112.335
1733.45     84.570  -116.824
1758.66     85.056  -120.215
1784.24     85.624  -123.666
1810.19     86.126  -127.481
1836.52     86.546  -131.424
1863.24     86.961  -135.349
1890.34     87.375  -139.301
1917.83     87.758  -143.666
1945.73     87.990  -148.126
1974.03     88.165  -151.589
2002.74     88.475  -154.719
2031.87     88.797  -158.872
2061.43     88.950  -163.108
2091.41     89.085  -166.671
2121.83     89.232  -170.107
2152.69     89.410  -173.510
2184.01     89.652  -177.224
2215.77     89.852   178.467
2248.00     89.962   173.730
2280.70     89.895   168.745
2313.87     89.624   164.438
2347.53     89.256   162.080
2381.68     89.098   161.227
2416.32     89.200   159.958
2451.46     89.390   157.965
2487.12     89.620   154.826
2523.30     89.631   151.153
2560.00     89.609   148.510
2597.24     89.753   145.219
2635.01     89.798   141.068
2673.34     89.725   136.809
2712.23     89.542   132.519
2751.68     89.294   128.952
2791.70     89.015   125.309
2832.31     88.594   122.032
2873.50     88.145   119.947
2915.30     87.735   118.799
2957.70     87.512   117.962
3000.72     87.287   116.024
3044.37     86.874   114.596
3088.65     86.477   114.108
3133.58     86.298   114.773
3179.16     86.277   114.197
3225.40     86.154   113.088
3272.31     85.906   111.669
3319.91     85.698   111.984
3368.20     85.614   112.024
3417.19     85.598   111.857
3466.89     85.562   110.668
3517.32     85.422   110.352
3568.48     85.416   110.614
3620.39     85.579   109.485
3673.05     85.641   106.692
3726.47     85.314   103.955
3780.67     84.842   103.425
3835.67     84.568   103.365
3891.46     84.308   103.701
3948.06     83.961   104.434
4005.49     83.790   106.832
4063.75     83.971   109.074
4122.86     84.224   108.827
4182.82     84.298   107.650
4243.66     84.319   106.862
4305.39     84.323   105.370
4368.01     84.024   104.127
4431.55     83.725   104.317
4496.01     83.546   105.007
4561.40     83.443   105.967
4627.75     83.398   106.984
4695.06     83.398   107.387
4763.35     83.357   107.928
4832.64     83.385   109.316
4902.93     83.607   109.545
4974.24     83.655   108.422
5046.60     83.598   108.037
5120.00     83.568   107.541
5194.47     83.391   107.176
5270.03     83.327   108.349
5346.68     83.550   108.204
5424.45     83.571   105.778
5503.35     83.220   103.790
5583.40     82.713   103.765
5664.61     82.275   106.267
5747.01     82.395   109.359
5830.60     82.661   108.686
5915.41     82.404   107.347
6001.45     82.135   107.380
6088.74     81.737   107.891
6177.30     81.498   110.382
6267.15     81.467   111.816
6358.31     81.366   113.247
6450.80     81.298   115.011
6544.62     81.293   116.522
6639.82     81.226   118.038
6736.40     81.387   119.189
6834.38     81.328   119.791
6933.79     81.288   120.675
7034.64     81.142   122.182
7136.96     81.156   124.562
7240.77     81.249   126.725
7346.09     81.407   128.453
7452.94     81.647   129.295
7561.35     81.742   129.589
7671.33     81.659   129.786
7782.91     81.517   131.480
7896.12     81.409   134.083
8010.97     81.582   137.579
8127.49     81.936   139.384
8245.71     82.332   139.665
8365.65     82.315   139.880
8487.33     82.447   141.554
8610.78     82.655   142.787
8736.03     82.844   143.997
8863.09     83.115   145.957
8992.01     83.604   146.819
9122.80     84.018   145.864
9255.50     84.264   144.427
9390.12     84.321   143.586
9526.70     84.398   142.417
9665.27     84.317   141.196
9805.86     84.097   140.642
9948.49     83.841   141.280
10093.2     83.590   142.676
10240.0     83.498   144.517
10388.9     83.408   145.765
10540.1     83.312   146.483
10693.4     83.058   147.574
10848.9     82.762   149.960
11006.7     82.706   152.675
11166.8     82.681   152.424
11329.2     81.629   153.323
11494.0     81.060   166.000
11661.2     82.240   173.293
11830.8     83.143   173.790
12002.9     83.640   172.249
12177.5     83.652   170.120
12354.6     83.362   170.243
12534.3     83.283   170.897
12716.6     82.925   170.168
12901.6     82.159   172.754
13089.2     81.826   178.942
13279.6     82.109  -175.740
13472.8     82.583  -173.086
13668.8     82.987  -172.280
13867.6     83.191  -172.671
14069.3     83.228  -172.179
14273.9     83.449  -172.331
14481.5     83.278  -174.479
14692.2     82.714  -173.453
14905.9     82.616  -170.008
15122.7     82.771  -168.521
15342.7     82.798  -167.598
15565.8     82.954  -166.430
15792.2     83.090  -167.430
16021.9     82.762  -169.354
16255.0     82.172  -168.326
16491.4     81.908  -164.774
16731.3     81.898  -161.327
16974.7     82.159  -158.525
17221.6     82.466  -160.705
17472.1     81.699  -163.626
17726.2     80.519  -158.850
17984.0     80.102  -150.286
18245.6     80.262  -143.001
18511.0     80.741  -137.440
18780.2     81.372  -134.530
19053.4     81.932  -133.577
19330.5     82.513  -135.513
19611.7     82.521  -141.561
19897.0     81.861  -145.093
20186.4     81.826  -143.480
20480.0     81.791  -141.867
20777.9     81.756  -140.254
21080.1     81.721  -138.642
21386.7     81.686  -137.029
21697.8     81.651  -135.416
22013.4     81.616  -133.803
22333.6     81.581  -132.190
22658.4     81.546  -130.577
22988.0     81.511  -128.964
23322.4     81.476  -127.352
23661.6     81.441  -125.739
24005.8     81.406  -124.126
24355.0     81.371  -122.513
24709.2     81.336  -120.900
25068.6     81.301  -119.287
25433.2     81.266  -117.674
25803.2     81.231  -116.061
26178.5     81.196  -114.449
26559.3     81.161  -112.836
26945.6     81.126  -111.223
27337.5     81.091  -109.610
27735.2     81.056  -107.997
28138.6     81.021  -106.384
28547.9     80.986  -104.771
28963.1     80.951  -103.159
29384.4     80.916  -101.546
29811.8     80.881   -99.933
30245.4     80.846   -98.320
30685.3     80.811   -96.707
31131.7     80.776   -95.094
31584.5     80.741   -93.481
32043.9     80.706   -91.868
32510.0     80.671   -90.256
32982.8     80.636   -88.643
33462.6     80.601   -87.030
33949.3     80.566   -85.417
34443.1     80.531   -83.804
34944.1     80.496   -82.191
35452.4     80.461   -80.578
35968.0     80.426   -78.966
36491.2     80.391   -77.353
37022.0     80.355   -75.740
37560.5     80.320   -74.127
38106.8     80.285   -72.514
38661.1     80.250   -70.901
39223.4     80.215   -69.288
39793.9     80.180   -67.675
