Freq[Hz]     dBSPL  Phase[Deg]
5.00000     57.870   -81.470
5.07273     57.822   -82.200
5.14651     57.775   -82.940
5.22137     57.727   -83.691
5.29732     57.680   -84.453
5.37437     57.632   -85.227
5.45254     57.585   -86.011
5.53185     57.537   -86.807
5.61231     57.490   -87.614
5.69394     57.442   -88.433
5.77676     57.395   -89.264
5.86079     57.347   -90.108
5.94604     57.300   -90.963
6.03252     57.252   -91.831
6.12027     57.205   -92.712
6.20929     57.157   -93.605
6.29961     57.110   -94.511
6.39124     57.062   -95.431
6.48420     57.015   -96.363
6.57851     56.967   -97.310
6.67420     56.920   -98.270
6.77128     56.872   -99.244
6.86977     56.824  -100.233
6.96969     56.777  -101.235
7.07107     56.729  -102.253
7.17392     56.682  -103.285
7.27827     56.634  -104.332
7.38413     56.587  -105.394
7.49154     56.539  -106.472
7.60050     56.492  -107.565
7.71105     56.444  -108.675
7.82321     56.397  -109.800
7.93701     56.349  -110.942
8.05245     56.302  -112.101
8.16958     56.254  -113.276
8.28841     56.207  -114.468
8.40896     56.159  -115.678
8.53128     56.112  -116.906
8.65537     56.064  -118.151
8.78126     56.017  -119.414
8.90899     55.969  -120.696
9.03857     55.922  -121.996
9.17004     55.874  -123.315
9.30342     55.827  -124.654
9.43874     55.779  -126.012
9.57603     55.731  -127.390
9.71532     55.684  -128.787
9.85663     55.636  -130.205
10.0000     55.589  -131.644
10.1455     55.657  -132.822
10.2930     55.700  -134.028
10.4427     55.671  -135.311
10.5946     55.642  -136.594
10.7487     55.605  -137.957
10.9051     55.567  -139.337
11.0637     55.523  -140.761
11.2246     55.472  -142.230
11.3879     55.419  -143.718
11.5535     55.355  -145.270
11.7216     55.291  -146.823
11.8921     55.212  -148.451
12.0650     55.133  -150.078
12.2405     55.038  -151.765
12.4186     54.942  -153.460
12.5992     54.829  -155.204
12.7825     54.713  -156.958
12.9684     54.578  -158.753
13.1570     54.438  -160.557
13.3484     54.278  -162.395
13.5426     54.114  -164.238
13.7395     53.923  -166.106
13.9394     53.727  -167.976
14.1421     53.503  -169.855
14.3478     53.268  -171.731
14.5565     53.009  -173.601
14.7683     52.727  -175.450
14.9831     52.428  -177.284
15.2010     52.091  -179.061
15.4221     51.738   179.193
15.6464     51.345   177.538
15.8740     50.920   175.977
16.1049     50.470   174.491
16.3392     49.960   173.247
16.5768     49.420   172.161
16.8179     48.839   171.290
17.0626     48.194   170.884
17.3107     47.511   170.835
17.5625     46.785   171.239
17.8180     46.004   172.635
18.0771     45.212   174.829
18.3401     44.420   177.924
18.6068     43.691  -177.404
18.8775     43.120  -171.419
19.1521     42.749  -164.557
19.4306     42.627  -157.080
19.7133     42.882  -149.859
20.0000     43.384  -143.755
20.2909     44.037  -138.909
20.5860     44.783  -135.428
20.8855     45.560  -133.269
21.1893     46.317  -132.458
21.4975     47.025  -132.555
21.8102     47.680  -133.381
22.1274     48.276  -134.823
22.4492     48.810  -136.786
22.7758     49.283  -139.194
23.1071     49.694  -141.989
23.4432     50.043  -145.126
23.7841     50.328  -148.590
24.1301     50.553  -152.342
24.4811     50.717  -156.364
24.8372     50.823  -160.654
25.1984     50.868  -165.216
25.5649     50.850  -170.060
25.9368     50.769  -175.206
26.3141     50.619   179.317
26.6968     50.400   173.468
27.0851     50.106   167.192
27.4791     49.734   160.395
27.8788     49.279   152.952
28.2843     48.745   144.737
28.6957     48.137   135.562
29.1131     47.470   125.189
29.5365     46.779   113.351
29.9661     46.125    99.806
30.4020     45.602    84.436
30.8442     45.368    67.400
31.2929     45.479    49.757
31.7480     45.933    32.520
32.2098     46.647    16.479
32.6783     47.512     2.212
33.1536     48.403   -10.538
33.6359     49.257   -22.056
34.1251     50.029   -32.516
34.6215     50.694   -42.198
35.1250     51.255   -51.352
35.6359     51.687   -60.052
36.1543     51.998   -68.454
36.6802     52.179   -76.630
37.2137     52.218   -84.626
37.7550     52.116   -92.497
38.3041     51.842  -100.255
38.8613     51.394  -107.924
39.4265     50.719  -115.487
40.0000     49.787  -122.928
40.5818     48.512  -130.179
41.1721     46.744  -137.075
41.7710     44.283  -143.297
42.3785     40.380  -147.381
42.9949     32.723  -137.773
43.6203     28.702   -35.983
44.2548     38.608   -12.844
44.8985     43.258   -15.160
45.5515     46.137   -20.558
46.2141     48.109   -26.780
46.8863     49.509   -33.206
47.5683     50.488   -39.544
48.2602     51.151   -45.599
48.9621     51.552   -51.202
49.6743     51.738   -56.168
50.3968     51.746   -60.299
51.1299     51.629   -63.398
51.8736     51.449   -65.321
52.6281     51.288   -66.075
53.3936     51.232   -65.931
54.1702     51.343   -65.460
54.9581     51.633   -65.414
55.7575     52.054   -66.463
56.5685     52.525   -68.955
57.3914     52.979   -73.001
58.2261     53.364   -78.580
59.0730     53.655   -85.738
59.9323     53.853   -94.407
60.8040     53.987  -104.680
61.6884     54.111  -116.792
62.5857     54.312  -130.708
63.4960     54.715  -146.358
64.4196     55.413  -163.093
65.3566     56.458   179.993
66.3073     57.785   163.772
67.2717     59.295   148.791
68.2502     60.865   135.086
69.2429     62.414   122.503
70.2501     63.879   110.849
71.2719     65.232    99.918
72.3086     66.453    89.576
73.3603     67.535    79.755
74.4274     68.474    70.433
75.5099     69.275    61.627
76.6083     69.945    53.377
77.7226     70.499    45.734
78.8531     70.955    38.748
80.0000     71.332    32.440
81.1636     71.658    26.794
82.3442     71.953    21.745
83.5419     72.234    17.193
84.7570     72.505    13.022
85.9899     72.764     9.140
87.2406     73.005     5.529
88.5096     73.220     2.235
89.7970     73.420    -0.662
91.1031     73.623    -3.101
92.4282     73.859    -5.118
93.7726     74.152    -6.887
95.1366     74.507    -8.671
96.5204     74.904   -10.713
97.9243     75.304   -13.114
99.3486     75.666   -15.790
100.794     75.970   -18.517
102.260     76.221   -21.039
103.747     76.451   -23.186
105.256     76.699   -24.977
106.787     76.992   -26.609
108.340     77.326   -28.334
109.916     77.671   -30.293
111.515     78.000   -32.434
113.137     78.300   -34.586
114.783     78.583   -36.603
116.452     78.873   -38.487
118.146     79.182   -40.355
119.865     79.500   -42.320
121.608     79.811   -44.361
123.377     80.112   -46.362
125.171     80.424   -48.272
126.992     80.771   -50.242
128.839     81.142   -52.540
130.713     81.490   -55.287
132.615     81.766   -58.292
134.543     81.960   -61.186
136.500     82.122   -63.673
138.486     82.285   -65.533
140.500     82.501   -67.514
142.544     82.742   -69.813
144.617     82.936   -71.859
146.721     83.124   -73.592
148.855     83.385   -75.231
151.020     83.732   -77.100
153.217     84.101   -79.659
155.445     84.401   -82.817
157.706     84.592   -86.077
160.000     84.709   -89.209
162.327     84.810   -91.817
164.688     84.928   -93.959
167.084     85.068   -96.300
169.514     85.202   -98.821
171.980     85.322  -101.085
174.481     85.467  -102.917
177.019     85.673  -104.876
179.594     85.905  -107.587
182.206     86.051  -110.995
184.856     86.073  -114.032
187.545     86.082  -116.074
190.273     86.177  -118.031
193.041     86.300  -120.341
195.849     86.373  -122.717
198.697     86.455  -124.957
201.587     86.584  -127.417
204.520     86.650  -130.364
207.494     86.602  -132.940
210.512     86.581  -134.881
213.574     86.644  -136.995
216.681     86.649  -139.335
219.833     86.596  -141.287
223.030     86.637  -143.035
226.274     86.698  -145.598
229.565     86.589  -148.222
232.905     86.441  -149.569
236.292     86.470  -150.501
239.729     86.560  -152.576
243.216     86.498  -154.997
246.754     86.372  -156.508
250.343     86.340  -157.676
253.984     86.342  -159.205
257.678     86.307  -160.516
261.426     86.295  -161.674
265.229     86.253  -162.846
269.087     86.188  -163.458
273.001     86.177  -163.943
276.972     86.122  -164.479
281.000     86.067  -164.378
285.088     86.128  -164.596
289.234     86.108  -165.428
293.441     86.002  -165.443
297.709     85.996  -165.244
302.040     85.975  -165.575
306.433     85.894  -165.537
310.890     85.865  -165.556
315.412     85.795  -165.645
320.000     85.753  -165.468
324.655     85.722  -165.670
329.377     85.657  -165.683
334.168     85.618  -165.869
339.028     85.560  -166.095
343.959     85.521  -166.343
348.962     85.481  -166.743
354.038     85.443  -167.195
359.188     85.415  -167.789
364.412     85.393  -168.386
369.713     85.380  -168.944
375.090     85.375  -169.472
380.546     85.378  -169.996
386.081     85.389  -170.504
391.697     85.409  -171.022
397.394     85.437  -171.556
403.175     85.471  -172.079
409.039     85.512  -172.632
414.989     85.559  -173.217
421.025     85.610  -173.824
427.149     85.665  -174.451
433.362     85.722  -175.101
439.665     85.785  -175.815
446.060     85.848  -176.551
452.548     85.912  -177.308
459.131     85.977  -178.105
465.809     86.044  -178.941
472.584     86.109  -179.791
479.458     86.175   179.348
486.432     86.241   178.455
493.507     86.309   177.532
500.686     86.379   176.579
507.968     86.449   175.620
515.357     86.519   174.654
522.853     86.592   173.655
530.458     86.667   172.619
538.174     86.742   171.568
546.002     86.818   170.497
553.943     86.896   169.378
562.001     86.976   168.203
570.175     87.057   166.969
578.469     87.137   165.670
586.883     87.215   164.332
595.419     87.287   162.957
604.080     87.355   161.514
612.866     87.417   160.005
621.780     87.471   158.435
630.824     87.515   156.810
640.000     87.547   155.170
649.309     87.567   153.527
658.753     87.575   151.858
668.335     87.570   150.145
678.056     87.553   148.464
687.919     87.523   146.798
697.925     87.482   145.160
708.077     87.432   143.590
718.376     87.374   142.068
728.825     87.308   140.601
739.426     87.238   139.196
750.181     87.166   137.853
761.093     87.093   136.571
772.163     87.022   135.368
783.394     86.954   134.215
794.789     86.887   133.093
806.349     86.826   132.032
818.078     86.768   131.015
829.977     86.714   130.044
842.050     86.665   129.125
854.298     86.623   128.266
866.724     86.590   127.485
879.330     86.570   126.760
892.120     86.567   126.096
905.097     86.588   125.472
918.262     86.637   124.849
931.618     86.718   124.174
945.169     86.830   123.378
958.917     86.969   122.392
972.864     87.129   121.150
987.015     87.298   119.604
1001.37     87.465   117.705
1015.94     87.611   115.480
1030.71     87.721   112.997
1045.71     87.785   110.263
1060.92     87.788   107.373
1076.35     87.725   104.523
1092.00     87.593   101.832
1107.89     87.396    99.449
1124.00     87.152    97.593
1140.35     86.893    96.434
1156.94     86.664    96.060
1173.77     86.527    96.420
1190.84     86.538    97.226
1208.16     86.725    97.994
1225.73     87.080    98.193
1243.56     87.553    97.399
1261.65     88.070    95.429
1280.00     88.566    92.332
1298.62     88.990    88.279
1317.51     89.313    83.455
1336.67     89.514    78.094
1356.11     89.580    72.493
1375.84     89.512    66.836
1395.85     89.317    61.354
1416.15     89.011    56.308
1436.75     88.625    51.860
1457.65     88.187    48.076
1478.85     87.737    44.965
1500.36     87.310    42.445
1522.19     86.918    40.308
1544.33     86.558    38.386
1566.79     86.209    36.621
1589.58     85.854    35.119
1612.70     85.499    34.124
1636.16     85.185    33.848
1659.95     84.987    34.274
1684.10     84.983    34.958
1708.60     85.187    35.102
1733.45     85.526    33.980
1758.66     85.879    31.279
1784.24     86.119    27.221
1810.19     86.155    22.412
1836.52     85.943    17.596
1863.24     85.496    13.797
1890.34     84.921    12.079
1917.83     84.462    13.028
1945.73     84.431    15.763
1974.03     84.944    17.781
2002.74     85.774    16.893
2031.87     86.581    12.797
2061.43     87.134     6.426
2091.41     87.332    -1.013
2121.83     87.159    -8.243
2152.69     86.688   -13.928
2184.01     86.102   -17.125
2215.77     85.703   -17.835
2248.00     85.726   -17.785
2280.70     86.090   -19.330
2313.87     86.496   -23.418
2347.53     86.683   -29.330
2381.68     86.542   -35.614
2416.32     86.113   -40.839
2451.46     85.567   -43.966
2487.12     85.159   -45.049
2523.30     85.051   -45.458
2560.00     85.173   -46.751
2597.24     85.331   -49.341
2635.01     85.402   -52.646
2673.34     85.383   -55.927
2712.23     85.344   -58.885
2751.68     85.339   -61.767
2791.70     85.351   -64.957
2832.31     85.308   -68.549
2873.50     85.146   -72.134
2915.30     84.875   -75.000
2957.70     84.604   -76.671
3000.72     84.478   -77.499
3044.37     84.523   -78.525
3088.65     84.611   -80.255
3133.58     84.656   -82.045
3179.16     84.758   -83.268
3225.40     85.063   -84.785
3272.31     85.451   -88.213
3319.91     85.586   -93.547
3368.20     85.267   -98.615
3417.19     84.680  -100.640
3466.89     84.371   -99.185
3517.32     84.651   -97.642
3568.48     85.187   -98.763
3620.39     85.625  -101.931
3673.05     85.904  -106.053
3726.47     85.979  -110.841
3780.67     85.716  -115.331
3835.67     85.180  -117.098
3891.46     84.913  -114.902
3948.06     85.394  -112.436
4005.49     86.243  -113.883
4063.75     86.895  -118.776
4122.86     87.154  -125.035
4182.82     86.979  -131.015
4243.66     86.434  -134.412
4305.39     86.048  -133.383
4368.01     86.423  -131.489
4431.55     87.153  -133.433
4496.01     87.654  -138.109
4561.40     87.878  -143.742
4627.75     87.673  -149.738
4695.06     86.969  -152.135
4763.35     86.857  -148.524
4832.64     87.869  -148.616
4902.93     88.522  -155.652
4974.24     88.336  -162.074
5046.60     88.071  -164.860
5120.00     88.048  -166.799
5194.47     88.237  -168.647
5270.03     88.657  -172.858
5346.68     88.568  -179.856
5424.45     87.857   176.946
5503.35     87.690   178.398
5583.40     88.126   177.543
5664.61     88.540   173.883
5747.01     88.595   168.158
5830.60     88.065   165.203
5915.41     88.176   166.582
6001.45     88.816   162.619
6088.74     88.771   156.412
6177.30     88.448   152.389
6267.15     87.986   150.583
6358.31     88.050   151.816
6450.80     88.526   148.340
6544.62     88.253   144.083
6639.82     88.124   143.779
6736.40     88.323   142.511
6834.38     88.655   140.665
6933.79     88.883   136.306
7034.64     88.749   133.083
7136.96     88.664   131.297
7240.77     88.829   131.427
7346.09     89.389   129.348
7452.94     89.913   125.717
7561.35     90.302   119.460
7671.33     90.288   114.485
7782.91     90.311   109.162
7896.12     90.075   104.281
8010.97     89.738   100.130
8127.49     89.357    99.052
8245.71     89.522    98.933
8365.65     89.894    94.829
8487.33     89.601    90.736
8610.78     89.520    90.374
8736.03     89.919    89.255
8863.09     90.259    85.097
8992.01     90.475    82.599
9122.80     91.003    77.233
9255.50     91.026    70.013
9390.12     90.533    64.649
9526.70     90.243    63.125
9665.27     90.239    62.274
9805.86     90.610    59.889
9948.49     90.908    55.964
10093.2     91.122    51.374
10240.0     91.146    46.500
10388.9     91.183    43.065
10540.1     91.405    39.971
10693.4     91.882    34.022
10848.9     91.738    26.266
11006.7     91.248    22.499
11166.8     91.367    20.345
11329.2     91.423    16.113
11494.0     91.888    13.365
11661.2     92.231     3.877
11830.8     91.606    -1.974
12002.9     91.734    -5.298
12177.5     91.594   -10.270
12354.6     92.084   -13.912
12534.3     92.266   -24.996
12716.6     91.489   -32.486
12901.6     91.071   -34.993
13089.2     91.341   -38.906
13279.6     91.662   -46.179
13472.8     91.441   -57.616
13668.8     90.281   -64.448
13867.6     89.781   -65.498
14069.3     89.930   -68.597
14273.9     90.067   -75.854
14481.5     89.555   -84.347
14692.2     88.940   -85.686
14905.9     89.294   -91.325
15122.7     89.167   -97.396
15342.7     88.897  -107.146
15565.8     88.098  -108.441
15792.2     88.603  -112.971
16021.9     89.134  -119.482
16255.0     89.141  -131.574
16491.4     88.755  -142.878
16731.3     88.038  -151.966
16974.7     87.000  -159.200
17221.6     86.501  -163.194
17472.1     86.486  -166.568
17726.2     86.687  -176.106
17984.0     86.662   172.117
18245.6     85.312   162.056
18511.0     84.856   157.488
18780.2     84.967   152.416
19053.4     84.981   139.396
19330.5     84.202   129.533
19611.7     83.941   122.981
19897.0     84.074   113.355
20186.4     83.906   107.109
20480.0     83.739   100.863
20777.9     83.571    94.616
21080.1     83.404    88.370
21386.7     83.236    82.124
21697.8     83.068    75.877
22013.4     82.901    69.631
22333.6     82.733    63.384
22658.4     82.566    57.138
22988.0     82.398    50.892
23322.4     82.231    44.645
23661.6     82.063    38.399
24005.8     81.896    32.153
24355.0     81.728    25.906
24709.2     81.560    19.660
25068.6     81.393    13.413
25433.2     81.225     7.167
25803.2     81.058     0.921
26178.5     80.890    -5.326
26559.3     80.723   -11.572
26945.6     80.555   -17.818
27337.5     80.388   -24.065
27735.2     80.220   -30.311
28138.6     80.052   -36.558
28547.9     79.885   -42.804
28963.1     79.717   -49.050
29384.4     79.550   -55.297
29811.8     79.382   -61.543
30245.4     79.215   -67.789
30685.3     79.047   -74.036
31131.7     78.880   -80.282
31584.5     78.712   -86.529
32043.9     78.544   -92.775
32510.0     78.377   -99.021
32982.8     78.209  -105.268
33462.6     78.042  -111.514
33949.3     77.874  -117.760
34443.1     77.707  -124.007
34944.1     77.539  -130.253
35452.4     77.372  -136.500
35968.0     77.204  -142.746
36491.2     77.036  -148.992
37022.0     76.869  -155.239
37560.5     76.701  -161.485
38106.8     76.534  -167.731
38661.1     76.366  -173.978
39223.4     76.199   179.776
39793.9     76.031   173.530
