Freq[Hz]     dBSPL  Phase[Deg]
5.00000     61.771   -81.700
5.07273     61.712   -82.394
5.14651     61.652   -83.098
5.22137     61.593   -83.813
5.29732     61.534   -84.537
5.37437     61.475   -85.273
5.45254     61.416   -86.019
5.53185     61.357   -86.775
5.61231     61.297   -87.543
5.69394     61.238   -88.322
5.77676     61.179   -89.112
5.86079     61.120   -89.914
5.94604     61.061   -90.728
6.03252     61.002   -91.553
6.12027     60.943   -92.390
6.20929     60.883   -93.239
6.29961     60.824   -94.101
6.39124     60.765   -94.976
6.48420     60.706   -95.863
6.57851     60.647   -96.763
6.67420     60.588   -97.676
6.77128     60.528   -98.602
6.86977     60.469   -99.542
6.96969     60.410  -100.495
7.07107     60.351  -101.463
7.17392     60.292  -102.444
7.27827     60.233  -103.440
7.38413     60.173  -104.450
7.49154     60.114  -105.475
7.60050     60.055  -106.514
7.71105     59.996  -107.569
7.82321     59.937  -108.640
7.93701     59.878  -109.725
8.05245     59.818  -110.827
8.16958     59.759  -111.945
8.28841     59.700  -113.078
8.40896     59.641  -114.229
8.53128     59.582  -115.396
8.65537     59.523  -116.580
8.78126     59.464  -117.781
8.90899     59.404  -119.000
9.03857     59.345  -120.236
9.17004     59.286  -121.491
9.30342     59.227  -122.764
9.43874     59.168  -124.055
9.57603     59.109  -125.365
9.71532     59.049  -126.694
9.85663     58.990  -128.042
10.0000     58.931  -129.410
10.1455     58.988  -130.517
10.2930     59.018  -131.650
10.4427     58.978  -132.859
10.5946     58.938  -134.067
10.7487     58.889  -135.355
10.9051     58.839  -136.658
11.0637     58.783  -138.003
11.2246     58.721  -139.393
11.3879     58.656  -140.800
11.5535     58.581  -142.271
11.7216     58.506  -143.741
11.8921     58.415  -145.285
12.0650     58.324  -146.827
12.2405     58.217  -148.428
12.4186     58.109  -150.035
12.5992     57.985  -151.689
12.7825     57.857  -153.353
12.9684     57.710  -155.057
13.1570     57.559  -156.768
13.3484     57.387  -158.511
13.5426     57.212  -160.258
13.7395     57.009  -162.029
13.9394     56.802  -163.801
14.1421     56.566  -165.580
14.3478     56.319  -167.355
14.5565     56.049  -169.121
14.7683     55.755  -170.867
14.9831     55.444  -172.595
15.2010     55.096  -174.264
15.4221     54.731  -175.901
15.6464     54.326  -177.446
15.8740     53.890  -178.895
16.1049     53.428   179.733
16.3392     52.906   178.605
16.5768     52.354   177.636
16.8179     51.762   176.884
17.0626     51.105   176.598
17.3107     50.411   176.672
17.5625     49.673   177.199
17.8180     48.881   178.721
18.0771     48.077  -178.957
18.3401     47.274  -175.732
18.6068     46.533  -170.928
18.8775     45.950  -164.810
19.1521     45.567  -157.813
19.4306     45.434  -150.198
19.7133     45.678  -142.838
20.0000     46.167  -136.593
20.2909     46.809  -131.604
20.5860     47.547  -127.989
20.8855     48.316  -125.694
21.1893     49.065  -124.745
21.4975     49.764  -124.703
21.8102     50.409  -125.387
22.1274     50.995  -126.686
22.4492     51.518  -128.504
22.7758     51.979  -130.766
23.1071     52.377  -133.414
23.4432     52.714  -136.402
23.7841     52.985  -139.716
24.1301     53.196  -143.317
24.4811     53.346  -147.187
24.8372     53.436  -151.325
25.1984     53.465  -155.734
25.5649     53.430  -160.424
25.9368     53.331  -165.417
26.3141     53.162  -170.740
26.6968     52.924  -176.434
27.0851     52.610   177.443
27.4791     52.217   170.798
27.8788     51.739   163.507
28.2843     51.183   155.443
28.6957     50.551   146.416
29.1131     49.859   136.191
29.5365     49.143   124.500
29.9661     48.463   111.098
30.4020     47.912    95.869
30.8442     47.650    78.972
31.2929     47.733    61.464
31.7480     48.157    44.359
32.2098     48.840    28.447
32.6783     49.674    14.305
33.1536     50.533     1.676
33.6359     51.354    -9.726
34.1251     52.092   -20.074
34.6215     52.723   -29.651
35.1250     53.249   -38.703
35.6359     53.644   -47.307
36.1543     53.919   -55.619
36.6802     54.064   -63.710
37.2137     54.063   -71.628
37.7550     53.925   -79.428
38.3041     53.611   -87.121
38.8613     53.124   -94.731
39.4265     52.411  -102.243
40.0000     51.438  -109.639
40.5818     50.124  -116.853
41.1721     48.314  -123.719
41.7710     45.812  -129.918
42.3785     41.869  -133.986
42.9949     34.172  -124.370
43.6203     30.109   -22.579
44.2548     39.975     0.553
44.8985     44.584    -1.776
45.5515     47.422    -7.196
46.2141     49.354   -13.446
46.8863     50.713   -19.906
47.5683     51.651   -26.287
48.2602     52.275   -32.392
48.9621     52.637   -38.050
49.6743     52.783   -43.080
50.3968     52.752   -47.280
51.1299     52.597   -50.455
51.8736     52.379   -52.459
52.6281     52.181   -53.301
53.3936     52.088   -53.250
54.1702     52.163   -52.878
54.9581     52.418   -52.936
55.7575     52.803   -54.094
56.5685     53.241   -56.701
57.3914     53.660   -60.866
58.2261     54.013   -66.568
59.0730     54.271   -73.854
59.9323     54.438   -82.654
60.8040     54.541   -93.063
61.6884     54.634  -105.314
62.5857     54.806  -119.372
63.4960     55.181  -135.167
64.4196     55.850  -152.050
65.3566     56.869  -169.116
66.3073     58.170   174.510
67.2717     59.654   159.372
68.2502     61.199   145.509
69.2429     62.723   132.766
70.2501     64.166   120.950
71.2719     65.495   109.855
72.3086     66.695    99.349
73.3603     67.756    89.361
74.4274     68.673    79.872
75.5099     69.456    70.897
76.6083     70.106    62.477
77.7226     70.642    54.665
78.8531     71.080    47.507
80.0000     71.441    41.028
81.1636     71.750    35.211
82.3442     72.029    29.990
83.5419     72.296    25.266
84.7570     72.552    20.922
85.9899     72.797    16.868
87.2406     73.024    13.085
88.5096     73.227     9.619
89.7970     73.415     6.550
91.1031     73.607     3.940
92.4282     73.831     1.751
93.7726     74.114    -0.189
95.1366     74.461    -2.143
96.5204     74.848    -4.356
97.9243     75.238    -6.926
99.3486     75.592    -9.770
100.794     75.889   -12.666
102.260     76.132   -15.355
103.747     76.355   -17.669
105.256     76.597   -19.626
106.787     76.884   -21.424
108.340     77.213   -23.314
109.916     77.553   -25.437
111.515     77.878   -27.742
113.137     78.173   -30.056
114.783     78.452   -32.235
116.452     78.738   -34.280
118.146     79.044   -36.309
119.865     79.359   -38.433
121.608     79.668   -40.634
123.377     79.966   -42.792
125.171     80.276   -44.860
126.992     80.622   -46.987
128.839     80.992   -49.440
130.713     81.338   -52.342
132.615     81.613   -55.502
134.543     81.807   -58.554
136.500     81.968   -61.198
138.486     82.132   -63.199
140.500     82.348   -65.332
142.544     82.589   -67.795
144.617     82.783   -69.988
146.721     82.972   -71.866
148.855     83.234   -73.659
151.020     83.582   -75.680
153.217     83.952   -78.388
155.445     84.253   -81.694
157.706     84.445   -85.099
160.000     84.563   -88.386
162.327     84.666   -91.146
164.688     84.784   -93.427
167.084     84.925   -95.915
169.514     85.061   -98.593
171.980     85.182  -101.011
174.481     85.327  -102.985
177.019     85.534  -105.085
179.594     85.767  -107.945
182.206     85.913  -111.510
184.856     85.935  -114.703
187.545     85.944  -116.888
190.273     86.039  -118.998
193.041     86.161  -121.459
195.849     86.233  -123.984
198.697     86.313  -126.381
201.587     86.440  -128.997
204.520     86.502  -132.099
207.494     86.451  -134.828
210.512     86.425  -136.931
213.574     86.484  -139.205
216.681     86.484  -141.694
219.833     86.424  -143.804
223.030     86.456  -145.716
226.274     86.508  -148.442
229.565     86.389  -151.227
232.905     86.230  -152.733
236.292     86.246  -153.823
239.729     86.321  -156.060
243.216     86.244  -158.642
246.754     86.099  -160.310
250.343     86.047  -161.639
253.984     86.026  -163.325
257.678     85.968  -164.787
261.426     85.929  -166.098
265.229     85.857  -167.415
269.087     85.759  -168.163
273.001     85.715  -168.774
276.972     85.622  -169.426
281.000     85.527  -169.431
285.088     85.543  -169.745
289.234     85.474  -170.654
293.441     85.318  -170.724
297.709     85.259  -170.556
302.040     85.183  -170.892
306.433     85.042  -170.828
310.890     84.950  -170.784
315.412     84.814  -170.771
320.000     84.707  -170.448
324.655     84.611  -170.462
329.377     84.481  -170.239
334.168     84.376  -170.121
339.028     84.255  -169.989
343.959     84.158  -169.829
348.962     84.065  -169.777
354.038     83.984  -169.736
359.188     83.919  -169.785
364.412     83.870  -169.794
369.713     83.841  -169.752
375.090     83.833  -169.681
380.546     83.844  -169.602
386.081     83.875  -169.539
391.697     83.927  -169.512
397.394     83.997  -169.547
403.175     84.080  -169.655
409.039     84.176  -169.857
414.989     84.284  -170.165
421.025     84.398  -170.581
427.149     84.512  -171.099
433.362     84.627  -171.718
439.665     84.744  -172.473
446.060     84.855  -173.317
452.548     84.956  -174.237
459.131     85.050  -175.245
465.809     85.133  -176.330
472.584     85.204  -177.445
479.458     85.260  -178.572
486.432     85.305  -179.723
493.507     85.337   179.123
500.686     85.357   177.986
507.968     85.366   176.914
515.357     85.365   175.921
522.853     85.358   175.001
530.458     85.346   174.167
538.174     85.335   173.449
546.002     85.327   172.846
553.943     85.328   172.341
562.001     85.342   171.927
570.175     85.374   171.588
578.469     85.427   171.299
586.883     85.503   171.035
595.419     85.603   170.756
604.080     85.727   170.420
612.866     85.875   169.987
621.780     86.042   169.421
630.824     86.226   168.691
640.000     86.418   167.795
649.309     86.611   166.729
658.753     86.805   165.469
668.335     86.998   163.990
678.056     87.179   162.357
687.919     87.346   160.555
697.925     87.496   158.606
708.077     87.624   156.568
718.376     87.732   154.430
728.825     87.816   152.217
739.426     87.878   149.953
750.181     87.917   147.662
761.093     87.933   145.369
772.163     87.928   143.133
783.394     87.904   140.933
794.789     87.862   138.753
806.349     87.806   136.676
818.078     87.736   134.679
829.977     87.656   132.768
842.050     87.567   130.954
854.298     87.472   129.239
866.724     87.374   127.651
879.330     87.273   126.146
892.120     87.174   124.751
905.097     87.079   123.466
918.262     86.991   122.288
931.618     86.915   121.209
945.169     86.855   120.211
958.917     86.814   119.268
972.864     86.794   118.343
987.015     86.797   117.394
1001.37     86.821   116.360
1015.94     86.861   115.212
1030.71     86.910   113.938
1045.71     86.961   112.497
1060.92     87.004   110.902
1076.35     87.031   109.233
1092.00     87.038   107.538
1107.89     87.023   105.879
1124.00     86.993   104.367
1140.35     86.961   103.076
1156.94     86.944   102.035
1173.77     86.968   101.235
1190.84     87.054   100.570
1208.16     87.217    99.859
1225.73     87.459    98.868
1243.56     87.765    97.376
1261.65     88.104    95.248
1280.00     88.442    92.437
1298.62     88.744    88.983
1317.51     88.986    84.956
1336.67     89.148    80.500
1356.11     89.217    75.832
1375.84     89.191    71.094
1395.85     89.076    66.467
1416.15     88.888    62.148
1436.75     88.653    58.238
1457.65     88.394    54.737
1478.85     88.139    51.598
1500.36     87.904    48.728
1522.19     87.693    45.959
1544.33     87.494    43.184
1566.79     87.291    40.383
1589.58     87.073    37.620
1612.70     86.844    35.020
1636.16     86.617    32.625
1659.95     86.416    30.375
1684.10     86.251    28.076
1708.60     86.106    25.473
1733.45     85.932    22.445
1758.66     85.657    19.069
1784.24     85.221    15.838
1810.19     84.611    13.601
1836.52     83.899    13.397
1863.24     83.323    15.963
1890.34     83.214    20.487
1917.83     83.701    24.316
1945.73     84.540    25.181
1974.03     85.382    22.869
2002.74     86.004    18.491
2031.87     86.352    13.400
2061.43     86.485     8.681
2091.41     86.539     4.866
2121.83     86.662     1.723
2152.69     86.916    -1.626
2184.01     87.228    -6.101
2215.77     87.446   -11.858
2248.00     87.443   -18.238
2280.70     87.191   -24.172
2313.87     86.780   -28.633
2347.53     86.418   -31.239
2381.68     86.307   -32.898
2416.32     86.446   -35.355
2451.46     86.626   -39.566
2487.12     86.620   -45.047
2523.30     86.344   -50.472
2560.00     85.882   -54.524
2597.24     85.457   -56.763
2635.01     85.252   -58.196
2673.34     85.229   -60.360
2712.23     85.179   -63.724
2751.68     84.944   -67.403
2791.70     84.552   -70.063
2832.31     84.189   -71.144
2873.50     84.018   -71.434
2915.30     84.001   -72.114
2957.70     83.990   -73.292
3000.72     83.954   -74.112
3044.37     84.037   -74.222
3088.65     84.350   -74.639
3133.58     84.773   -76.548
3179.16     85.089   -79.735
3225.40     85.234   -82.903
3272.31     85.356   -85.192
3319.91     85.631   -87.260
3368.20     86.033   -90.481
3417.19     86.375   -95.341
3466.89     86.501  -101.297
3517.32     86.337  -107.392
3568.48     85.889  -112.355
3620.39     85.321  -114.948
3673.05     84.956  -115.434
3726.47     84.869  -116.262
3780.67     84.669  -118.192
3835.67     84.218  -118.024
3891.46     84.206  -114.107
3948.06     85.050  -112.267
4005.49     85.885  -116.081
4063.75     86.093  -121.481
4122.86     86.004  -124.214
4182.82     86.215  -125.400
4243.66     86.616  -128.491
4305.39     86.777  -132.980
4368.01     86.717  -136.501
4431.55     86.738  -138.699
4496.01     86.942  -141.215
4561.40     87.110  -145.131
4627.75     86.989  -149.411
4695.06     86.648  -151.817
4763.35     86.514  -151.999
4832.64     86.740  -152.919
4902.93     86.857  -155.827
4974.24     86.616  -157.004
5046.60     86.809  -154.201
5120.00     87.858  -154.628
5194.47     88.579  -160.982
5270.03     88.619  -166.117
5346.68     88.933  -168.659
5424.45     89.414  -174.307
5503.35     89.371   179.568
5583.40     89.379   175.763
5664.61     89.501   170.123
5747.01     89.155   164.502
5830.60     88.726   161.727
5915.41     88.429   160.334
6001.45     88.440   160.019
6088.74     88.673   157.790
6177.30     88.792   155.855
6267.15     89.345   152.996
6358.31     89.527   145.617
6450.80     89.031   141.311
6544.62     89.022   139.158
6639.82     88.798   134.370
6736.40     88.446   133.588
6834.38     88.614   131.007
6933.79     88.201   128.138
7034.64     88.144   128.525
7136.96     88.148   127.806
7240.77     88.591   129.228
7346.09     89.230   125.739
7452.94     89.690   123.350
7561.35     90.550   116.468
7671.33     90.399   108.184
7782.91     90.202   102.944
7896.12     89.654    96.767
8010.97     88.945    95.588
8127.49     88.910    96.286
8245.71     89.110    95.013
8365.65     89.378    92.639
8487.33     89.608    88.899
8610.78     89.449    84.680
8736.03     89.474    83.519
8863.09     89.574    80.563
8992.01     89.907    78.613
9122.80     90.199    74.168
9255.50     90.304    69.156
9390.12     90.206    64.642
9526.70     89.997    62.072
9665.27     90.161    60.364
9805.86     90.553    57.118
9948.49     90.749    51.682
10093.2     90.697    46.712
10240.0     90.517    43.272
10388.9     90.668    42.235
10540.1     91.183    38.924
10693.4     91.807    32.316
10848.9     91.829    22.898
11006.7     91.163    16.531
11166.8     90.663    15.097
11329.2     90.968    14.883
11494.0     91.443    10.247
11661.2     91.892     3.748
11830.8     91.760    -3.132
12002.9     91.721    -8.597
12177.5     91.801   -12.979
12354.6     92.163   -19.473
12534.3     92.137   -28.859
12716.6     91.550   -37.325
12901.6     90.943   -39.938
13089.2     91.158   -42.845
13279.6     91.668   -51.573
13472.8     91.162   -63.784
13668.8     89.879   -70.469
13867.6     89.082   -70.086
14069.3     89.013   -70.723
14273.9     89.425   -75.383
14481.5     89.713   -81.668
14692.2     89.612   -90.199
14905.9     89.237   -97.867
15122.7     88.988  -102.949
15342.7     88.722  -110.324
15565.8     88.169  -114.634
15792.2     88.664  -119.014
16021.9     88.715  -130.734
16255.0     87.781  -139.957
16491.4     87.168  -143.448
16731.3     87.419  -150.394
16974.7     87.014  -157.284
17221.6     87.006  -164.737
17472.1     86.867  -174.856
17726.2     86.472   175.893
17984.0     85.959   163.857
18245.6     84.624   156.264
18511.0     84.070   153.758
18780.2     84.235   148.609
19053.4     84.441   138.351
19330.5     84.040   128.826
19611.7     84.155   118.495
19897.0     83.879   106.358
20186.4     83.709   100.074
20480.0     83.539    93.791
20777.9     83.368    87.507
21080.1     83.198    81.223
21386.7     83.028    74.939
21697.8     82.857    68.655
22013.4     82.687    62.371
22333.6     82.517    56.087
22658.4     82.346    49.803
22988.0     82.176    43.520
23322.4     82.006    37.236
23661.6     81.835    30.952
24005.8     81.665    24.668
24355.0     81.495    18.384
24709.2     81.325    12.100
25068.6     81.154     5.816
25433.2     80.984    -0.468
25803.2     80.814    -6.751
26178.5     80.643   -13.035
26559.3     80.473   -19.319
26945.6     80.303   -25.603
27337.5     80.132   -31.887
27735.2     79.962   -38.171
28138.6     79.792   -44.455
28547.9     79.621   -50.739
28963.1     79.451   -57.023
29384.4     79.281   -63.306
29811.8     79.111   -69.590
30245.4     78.940   -75.874
30685.3     78.770   -82.158
31131.7     78.600   -88.442
31584.5     78.429   -94.726
32043.9     78.259  -101.010
32510.0     78.089  -107.294
32982.8     77.918  -113.577
33462.6     77.748  -119.861
33949.3     77.578  -126.145
34443.1     77.407  -132.429
34944.1     77.237  -138.713
35452.4     77.067  -144.997
35968.0     76.897  -151.281
36491.2     76.726  -157.565
37022.0     76.556  -163.849
37560.5     76.386  -170.132
38106.8     76.215  -176.416
38661.1     76.045   177.300
39223.4     75.875   171.016
39793.9     75.704   164.732
