"Early Reflections"											
"Floor Bounce"		"Ceiling Bounce"		"Front Wall Bounce"		"Side Wall Bounce"		"Rear Wall Bounce"		"Total Early Reflection"	
"Frequency [Hz]"	"Sound Pessure Level [dB]  / [2.83V 1m] "	"Frequency [Hz]"	"Sound Pessure Level [dB]  / [2.83V 1m] "	"Frequency [Hz]"	"Sound Pessure Level [dB]  / [2.83V 1m] "	"Frequency [Hz]"	"Sound Pessure Level [dB]  / [2.83V 1m] "	"Frequency [Hz]"	"Sound Pessure Level [dB]  / [2.83V 1m] "	"Frequency [Hz]"	"Sound Pessure Level [dB]  / [2.83V 1m] "
20.5078	73.2842	20.5078	74.2871	20.5078	73.6319	20.5078	73.6881	20.5078	73.826	20.5078	73.7188
23.4375	77.4067	23.4375	78.4034	23.4375	77.7434	23.4375	77.8323	23.4375	78.0077	23.4375	77.8529
26.3672	80.2933	26.3672	81.2991	26.3672	80.628	26.3672	80.729	26.3672	80.9178	26.3672	80.7468
29.2969	82.7727	29.2969	83.7931	29.2969	83.1138	29.2969	83.2189	29.2969	83.4158	29.2969	83.236
32.2266	84.3277	32.2266	85.3125	32.2266	84.6475	32.2266	84.7738	32.2266	85.0019	32.2266	84.7846
35.1562	86.052	35.1562	87.0279	35.1562	86.3721	35.1562	86.4879	35.1562	86.705	35.1562	86.5013
38.0859	87.1993	38.0859	88.1748	38.0859	87.5184	38.0859	87.6324	38.0859	87.846	38.0859	87.6464
41.0156	88.1212	41.0156	89.1082	41.0156	88.4466	41.0156	88.5543	41.0156	88.756	41.0156	88.5701
43.9453	88.7131	43.9453	89.6996	43.9453	89.0411	43.9453	89.1416	43.9453	89.3292	43.9453	89.1586
46.875	88.8696	46.875	89.8479	46.875	89.193	46.875	89.2941	46.875	89.4874	46.875	89.3115
49.8047	88.6839	49.8047	89.6742	49.8047	89.0096	49.8047	89.1156	49.8047	89.3141	49.8047	89.1322
55.6641	87.9764	55.6641	88.988	55.6641	88.308	55.6641	88.4183	55.6641	88.62	55.6641	88.4345
58.5938	87.4565	58.5938	88.4885	58.5938	87.7999	58.5938	87.9088	58.5938	88.0988	58.5938	87.9242
61.5234	87.0403	61.5234	88.0467	61.5234	87.3765	61.5234	87.4706	61.5234	87.6404	61.5234	87.4893
67.3828	86.1584	67.3828	87.1374	67.3828	86.4782	67.3828	86.5816	67.3828	86.7726	67.3828	86.5985
73.2422	85.901	73.2422	86.8898	73.2422	86.2174	73.2422	86.3325	73.2422	86.5509	73.2422	86.349
76.1719	86.0627	76.1719	87.062	76.1719	86.3815	76.1719	86.4991	76.1719	86.7191	76.1719	86.5153
82.0312	86.426	82.0312	87.4349	82.0312	86.748	82.0312	86.8614	82.0312	87.0712	82.0312	86.879
87.8906	87.123	87.8906	88.1522	87.8906	87.4498	87.8906	87.5685	87.8906	87.7849	87.8906	87.5858
93.75	87.7792	93.75	88.7914	93.75	88.1015	93.75	88.2096	93.75	88.4118	93.75	88.2293
102.539	88.3806	102.539	89.3677	102.539	88.6906	102.539	88.7989	102.539	88.9999	102.539	88.8179
108.398	88.5301	108.398	89.5486	108.398	88.8486	108.398	88.961	108.398	89.1648	108.398	88.9804
117.188	88.6192	117.188	89.6652	117.188	88.9447	117.188	89.0607	117.188	89.2752	117.188	89.0816
125.977	88.2105	125.977	89.2839	125.977	88.5437	125.977	88.6543	125.977	88.8707	125.977	88.6799
134.766	87.4231	134.766	88.5037	134.766	87.7548	134.766	87.8659	134.766	88.0753	134.766	87.8917
143.555	86.6041	143.555	87.6535	143.555	86.9205	143.555	87.0322	143.555	87.231	143.555	87.056
155.273	86.1138	155.273	87.1437	155.273	86.4143	155.273	86.5384	155.273	86.7574	155.273	86.5596
164.062	86.2478	164.062	87.2888	164.062	86.5497	164.062	86.6717	164.062	86.8937	164.062	86.6954
175.781	86.2166	175.781	87.2531	175.781	86.5068	175.781	86.6245	175.781	86.8439	175.781	86.6522
190.43	85.621	190.43	86.7596	190.43	85.9388	190.43	86.0757	190.43	86.3061	190.43	86.1023
202.148	85.3262	202.148	86.4601	202.148	85.6522	202.148	85.7861	202.148	86.0012	202.148	85.8098
216.797	85.3718	216.797	86.5174	216.797	85.6948	216.797	85.8303	216.797	86.0656	216.797	85.8579
234.375	85.4705	234.375	86.67	234.375	85.8358	234.375	85.9606	234.375	86.2021	234.375	85.9915
249.023	85.3276	249.023	86.6694	249.023	85.7579	249.023	85.8793	249.023	86.0898	249.023	85.912
266.602	85.3885	266.602	86.7043	266.602	85.8251	266.602	85.9304	266.602	86.1001	266.602	85.9612
287.109	85.447	287.109	86.9351	287.109	85.9346	287.109	86.1148	287.109	86.2783	287.109	86.1192
307.617	85.4981	307.617	87.2763	307.617	86.1264	307.617	86.2565	307.617	86.4913	307.617	86.3019
331.055	85.2026	331.055	87.0876	331.055	85.9491	331.055	86.0734	331.055	86.2678	331.055	86.104
354.492	85.2381	354.492	87.2912	354.492	86.1151	354.492	86.2061	354.492	86.3727	354.492	86.2434
377.93	84.9754	377.93	87.5694	377.93	86.1533	377.93	86.2718	377.93	86.4487	377.93	86.3062
407.227	84.646	407.227	87.3469	407.227	85.9301	407.227	86.0753	407.227	86.1663	407.227	86.0774
436.523	83.2979	436.523	86.866	436.523	85.0379	436.523	85.1079	436.523	85.2882	436.523	85.189
465.82	82.726	465.82	86.0655	465.82	84.444	465.82	84.5047	465.82	84.6126	465.82	84.5492
500.977	81.9567	500.977	85.59	500.977	83.4632	500.977	83.5249	500.977	83.6261	500.977	83.6709
536.133	81.6341	536.133	85.5158	536.133	83.2183	536.133	83.2389	536.133	83.0999	536.133	83.4049
574.219	81.7455	574.219	85.302	574.219	82.9101	574.219	82.9035	574.219	82.9321	574.219	83.1534
615.234	82.071	615.234	85.6977	615.234	83.3265	615.234	83.335	615.234	83.0806	615.234	83.5352
659.18	83.347	659.18	86.1978	659.18	83.7134	659.18	83.575	659.18	83.2937	659.18	83.9543
706.055	84.0483	706.055	86.8396	706.055	83.9085	706.055	83.9715	706.055	83.843	706.055	84.3964
758.789	84.176	758.789	87.7395	758.789	84.3979	758.789	84.3738	758.789	84.1342	758.789	84.8862
811.523	84.9555	811.523	87.1663	811.523	85.252	811.523	85.3279	811.523	85.1449	811.523	85.5061
870.117	85.6065	870.117	87.5132	870.117	85.1161	870.117	85.1705	870.117	85.0249	870.117	85.5349
931.641	85.0358	931.641	87.9516	931.641	85.2156	931.641	85.305	931.641	85.2003	931.641	85.646
999.023	84.059	999.023	86.0713	999.023	85.6578	999.023	86.0226	999.023	86.1059	999.023	85.7533
1,072.27	84.864	1,072.27	86.635	1,072.27	82.2196	1,072.27	82.9714	1,072.27	83.8033	1,072.27	83.7539
1,148.44	83.7906	1,148.44	86.1674	1,148.44	82.5189	1,148.44	82.8699	1,148.44	84.3044	1,148.44	83.5985
1,230.47	83.0007	1,230.47	87.3807	1,230.47	85.3912	1,230.47	86.0025	1,230.47	86.9154	1,230.47	85.9021
1,318.36	83.5904	1,318.36	86.7687	1,318.36	87.215	1,318.36	87.3495	1,318.36	87.5919	1,318.36	86.9738
1,415.04	84.6261	1,415.04	86.3955	1,415.04	87.7406	1,415.04	87.8445	1,415.04	88.1764	1,415.04	87.4334
1,514.65	81.1206	1,514.65	86.4201	1,514.65	87.3612	1,514.65	87.5553	1,514.65	87.4655	1,514.65	86.9513
1,623.05	81.4604	1,623.05	84.7918	1,623.05	85.9084	1,623.05	86.089	1,623.05	85.7229	1,623.05	85.5055
1,740.23	81.4839	1,740.23	84.4979	1,740.23	84.3621	1,740.23	84.6994	1,740.23	84.555	1,740.23	84.2923
1,866.21	82.4032	1,866.21	83.9966	1,866.21	83.0708	1,866.21	82.6267	1,866.21	82.4142	1,866.21	82.8817
2,000.98	81.4408	2,000.98	84.0797	2,000.98	82.327	2,000.98	81.3458	2,000.98	81.3823	2,000.98	82.0385
2,144.53	81.8649	2,144.53	85.2372	2,144.53	82.0285	2,144.53	81.1667	2,144.53	82.5631	2,144.53	82.3134
2,296.88	82.6195	2,296.88	85.4468	2,296.88	79.3702	2,296.88	79.2442	2,296.88	80.4226	2,296.88	81.1347
2,460.94	80.359	2,460.94	85.6804	2,460.94	82.3712	2,460.94	81.9218	2,460.94	82.9342	2,460.94	82.6537
2,639.65	81.1077	2,639.65	86.403	2,639.65	83.4297	2,639.65	82.4471	2,639.65	82.2521	2,639.65	83.254
2,827.15	77.6092	2,827.15	84.7786	2,827.15	78.6878	2,827.15	80.6824	2,827.15	80.2443	2,827.15	80.7351
3,032.23	73.0502	3,032.23	83.6249	3,032.23	79.798	3,032.23	81.1508	3,032.23	80.3571	3,032.23	80.6919
3,249.02	72.829	3,249.02	82.8338	3,249.02	81.12	3,249.02	81.0467	3,249.02	80.2336	3,249.02	80.8039
3,483.4	77.7313	3,483.4	80.5727	3,483.4	82.3482	3,483.4	81.7506	3,483.4	82.259	3,483.4	81.5597
3,732.42	79.9271	3,732.42	79.403	3,732.42	83.4983	3,732.42	81.4694	3,732.42	82.6624	3,732.42	81.9562
3,999.02	82.0973	3,999.02	80.0537	3,999.02	82.3176	3,999.02	79.8917	3,999.02	81.4696	3,999.02	81.1391
4,286.13	81.6201	4,286.13	83.0965	4,286.13	81.0281	4,286.13	81.0498	4,286.13	82.9054	4,286.13	81.641
4,593.75	80.8212	4,593.75	82.9328	4,593.75	78.2772	4,593.75	80.1518	4,593.75	81.0462	4,593.75	80.3833
4,924.8	81.4527	4,924.8	84.0198	4,924.8	79.4732	4,924.8	80.6448	4,924.8	79.5662	4,924.8	80.9393
5,279.3	83.5908	5,279.3	83.1628	5,279.3	80.4181	5,279.3	81.7782	5,279.3	81.3973	5,279.3	81.8685
5,657.23	83.2403	5,657.23	83.7951	5,657.23	80.2909	5,657.23	82.1839	5,657.23	82.5452	5,657.23	82.1773
6,061.52	81.2532	6,061.52	83.7991	6,061.52	78.8011	6,061.52	80.3966	6,061.52	80.8136	6,061.52	80.7757
6,498.05	79.2706	6,498.05	81.3664	6,498.05	78.3527	6,498.05	79.3335	6,498.05	79.0251	6,498.05	79.3547
6,963.87	80.7656	6,963.87	81.9256	6,963.87	79.0807	6,963.87	79.7549	6,963.87	80.2425	6,963.87	80.0893
7,464.84	81.6988	7,464.84	83.8466	7,464.84	81.2043	7,464.84	81.7769	7,464.84	81.1817	7,464.84	81.8644
8,000.98	78.7355	8,000.98	83.0288	8,000.98	80.2378	8,000.98	80.3481	8,000.98	79.3075	8,000.98	80.4824
8,575.2	75.9797	8,575.2	81.4223	8,575.2	79.9222	8,575.2	79.7679	8,575.2	78.4497	8,575.2	79.6171
9,190.43	75.6873	9,190.43	78.8278	9,190.43	78.9811	9,190.43	78.3719	9,190.43	77.9738	9,190.43	78.3283
9,849.61	72.0331	9,849.61	76.5092	9,849.61	78.7714	9,849.61	77.5163	9,849.61	77.6238	9,849.61	77.4572
10,555.7	73.8619	10,555.7	78.4148	10,555.7	79.9216	10,555.7	78.9239	10,555.7	79.2609	10,555.7	78.8656
11,314.5	77.1531	11,314.5	78.7835	11,314.5	80.6854	11,314.5	80.2479	11,314.5	79.3519	11,314.5	79.863
12,126	76.2847	12,126	78.9623	12,126	81.1433	12,126	79.286	12,126	79.0508	12,126	79.5869
12,996.1	80.3483	12,996.1	78.5422	12,996.1	82.7106	12,996.1	81.6572	12,996.1	82.1972	12,996.1	81.6576
13,927.7	77.6976	13,927.7	73.9691	13,927.7	79.5377	13,927.7	79.4183	13,927.7	78.8959	13,927.7	78.8344
14,929.7	79.3847	14,929.7	77.0082	14,929.7	80.201	14,929.7	79.2064	14,929.7	78.7909	14,929.7	79.2829
15,999	75.3777	15,999	74.4784	15,999	75.8132	15,999	74.41	15,999	70.076	15,999	74.665
17,147.5	77.0747	17,147.5	75.9042	17,147.5	77.4148	17,147.5	75.1528	17,147.5	70.6624	17,147.5	75.9289
18,377.9	74.2605	18,377.9	76.1444	18,377.9	76.4124	18,377.9	73.6748	18,377.9	73.7899	18,377.9	74.9607
19,699.2	63.6793	19,699.2	66.9964	19,699.2	68.0756	19,699.2	64.7149	19,699.2	66.8064	19,699.2	66.3019
19,998	56.4198	19,998	60.061	19,998	61.7062	19,998	58.0844	19,998	59.9704	19,998	59.6776
