Freq[Hz]     dBSPL  Phase[Deg]
5.00000     44.243    49.000
5.07273     44.459    48.830
5.14651     44.675    48.659
5.22137     44.891    48.489
5.29732     45.113    48.313
5.37437     45.339    48.134
5.45254     45.565    47.956
5.53185     45.783    47.773
5.61231     45.986    47.586
5.69394     46.190    47.399
5.77676     46.397    47.209
5.86079     46.609    47.014
5.94604     46.821    46.819
6.03252     47.037    46.620
6.12027     47.258    46.417
6.20929     47.479    46.213
6.29961     47.705    46.005
6.39124     47.935    45.793
6.48420     48.165    45.581
6.57851     48.370    45.362
6.67420     48.570    45.141
6.77128     48.780    44.919
6.86977     49.027    44.690
6.96969     49.274    44.462
7.07107     49.499    44.227
7.17392     49.713    43.990
7.27827     49.930    43.751
7.38413     50.152    43.505
7.49154     50.373    43.260
7.60050     50.602    43.007
7.71105     50.831    42.753
7.82321     51.035    42.494
7.93701     51.226    42.233
8.05245     51.440    41.967
8.16958     51.684    41.696
8.28841     51.914    41.423
8.40896     52.116    41.145
8.53128     52.320    40.864
8.65537     52.528    40.577
8.78126     52.738    40.288
8.90899     52.952    39.993
9.03857     53.167    39.695
9.17004     53.387    39.391
9.30342     53.609    39.084
9.43874     53.834    38.772
9.57603     54.063    38.456
9.71532     54.294    38.136
9.85663     54.530    37.810
10.0000     54.767    37.481
10.1455     54.951    37.144
10.2930     55.154    36.805
10.4427     55.402    36.459
10.5946     55.616    36.109
10.7487     55.809    35.756
10.9051     56.069    35.394
11.0637     56.305    35.028
11.2246     56.507    34.658
11.3879     56.712    34.281
11.5535     56.920    33.899
11.7216     57.130    33.513
11.8921     57.344    33.119
12.0650     57.560    32.721
12.2405     57.779    32.317
12.4186     58.002    31.906
12.5992     58.228    31.490
12.7825     58.456    31.068
12.9684     58.688    30.639
13.1570     58.923    30.204
13.3484     59.122    29.763
13.5426     59.303    29.315
13.7395     59.548    28.862
13.9394     59.797    28.400
14.1421     59.993    27.933
14.3478     60.205    27.459
14.5565     60.442    26.978
14.7683     60.627    26.491
14.9831     60.894    25.995
15.2010     61.084    25.492
15.4221     61.338    24.981
15.6464     61.558    24.463
15.8740     61.749    23.937
16.1049     61.942    23.404
16.3392     62.174    22.864
16.5768     62.437    22.315
16.8179     62.639    21.759
17.0626     62.843    21.194
17.3107     63.051    20.621
17.5625     63.261    20.039
17.8180     63.474    19.449
18.0771     63.690    18.851
18.3401     63.910    18.244
18.6068     64.132    17.628
18.8775     64.357    17.003
19.1521     64.586    16.368
19.4306     64.817    15.725
19.7133     65.052    15.073
20.0000     65.290    14.411
20.2909     65.532    13.682
20.5860     65.790    12.288
20.8855     66.053    10.979
21.1893     66.251    10.075
21.4975     66.328     9.606
21.8102     66.479     9.497
22.1274     66.710     9.464
22.4492     66.989     9.250
22.7758     67.330     8.605
23.1071     67.685     7.438
23.4432     67.876     6.022
23.7841     67.999     4.744
24.1301     68.051     4.021
24.4811     68.284     3.792
24.8372     68.551     3.741
25.1984     68.937     3.280
25.5649     69.251     1.991
25.9368     69.466    -0.036
26.3141     69.625    -2.339
26.6968     69.699    -4.340
27.0851     69.795    -5.596
27.4791     69.891    -6.153
27.8788     70.151    -6.405
28.2843     70.303    -6.801
28.6957     70.592    -7.483
29.1131     70.890    -8.319
29.5365     71.228    -9.222
29.9661     71.486   -10.239
30.4020     71.760   -11.437
30.8442     71.937   -12.606
31.2929     72.099   -13.375
31.7480     72.198   -13.506
32.2098     72.467   -13.189
32.6783     72.770   -13.136
33.1536     73.175   -13.733
33.6359     73.423   -14.823
34.1251     73.649   -15.947
34.6215     73.848   -16.737
35.1250     74.241   -17.229
35.6359     74.485   -17.722
36.1543     74.750   -18.536
36.6802     75.127   -19.835
37.2137     75.285   -21.491
37.7550     75.491   -23.013
38.3041     75.580   -23.795
38.8613     75.744   -24.089
39.4265     76.107   -24.663
40.0000     76.222   -25.897
40.5818     76.499   -27.146
41.1721     76.499   -27.577
41.7710     76.807   -27.611
42.3785     76.978   -28.157
42.9949     77.297   -28.946
43.6203     77.436   -29.372
44.2548     77.701   -29.927
44.8985     78.058   -31.322
45.5515     78.299   -32.726
46.2141     78.379   -33.544
46.8863     78.554   -34.471
47.5683     78.888   -35.733
48.2602     79.103   -36.504
48.9621     79.384   -37.246
49.6743     79.499   -38.467
50.3968     79.658   -38.914
51.1299     79.951   -38.872
51.8736     80.348   -40.255
52.6281     80.550   -41.852
53.3936     80.637   -41.846
54.1702     81.067   -42.479
54.9581     81.382   -44.674
55.7575     81.402   -45.698
56.5685     81.626   -45.977
57.3914     81.856   -47.207
58.2261     82.099   -48.408
59.0730     82.299   -49.344
59.9323     82.399   -50.218
60.8040     82.699   -50.809
61.6884     82.874   -51.918
62.5857     83.109   -52.780
63.4960     83.459   -53.668
64.4196     83.690   -55.678
65.3566     83.746   -56.579
66.3073     84.116   -57.066
67.2717     84.369   -58.993
68.2502     84.462   -60.396
69.2429     84.596   -60.849
70.2501     84.916   -61.768
71.2719     85.061   -63.548
72.3086     85.244   -64.228
73.3603     85.575   -64.815
74.4274     85.875   -66.368
75.5099     86.080   -68.044
76.6083     86.218   -69.323
77.7226     86.588   -70.435
78.8531     86.708   -72.596
80.0000     86.754   -73.823
81.1636     87.001   -74.617
82.3442     87.199   -76.320
83.5419     87.299   -77.957
84.7570     87.346   -78.744
85.9899     87.695   -79.764
87.2406     87.895   -81.262
88.5096     88.099   -82.536
89.7970     88.318   -84.081
91.1031     88.549   -86.007
92.4282     88.739   -87.768
93.7726     88.899   -89.448
95.1366     89.116   -91.639
96.5204     89.259   -93.742
97.9243     89.399   -96.014
99.3486     89.299   -98.115
100.794     89.432   -99.456
102.260     89.466  -100.414
103.747     89.579  -101.799
105.256     89.828  -103.290
106.787     89.949  -105.175
108.340     89.966  -106.911
109.916     90.047  -108.762
111.515     90.228  -110.589
113.137     90.299  -112.357
114.783     90.399  -114.243
116.452     90.356  -116.118
118.146     90.428  -117.720
119.865     90.632  -119.163
121.608     90.585  -121.102
123.377     90.599  -122.786
125.171     90.599  -124.458
126.992     90.599  -126.115
128.839     90.686  -127.760
130.713     90.528  -129.386
132.615     90.699  -130.835
134.543     90.599  -132.723
136.500     90.670  -134.618
138.486     90.699  -136.358
140.500     90.599  -138.304
142.544     90.362  -139.788
144.617     90.259  -140.755
146.721     90.199  -141.614
148.855     90.162  -142.728
151.020     89.999  -143.645
153.217     89.999  -144.637
155.445     89.999  -145.851
157.706     89.999  -146.911
160.000     89.929  -148.101
162.327     89.799  -149.262
164.688     89.732  -150.144
167.084     89.578  -150.484
169.514     89.577  -150.481
171.980     89.569  -150.825
174.481     89.595  -151.558
177.019     89.479  -152.615
179.594     89.404  -153.166
182.206     89.374  -153.541
184.856     89.385  -154.207
187.545     89.327  -154.935
190.273     89.337  -155.427
193.041     89.372  -155.715
195.849     89.299  -156.537
198.697     89.233  -157.066
201.587     89.252  -157.288
204.520     89.236  -157.673
207.494     89.179  -158.160
210.512     89.147  -158.860
213.574     89.152  -159.577
216.681     89.114  -160.219
219.833     89.149  -160.767
223.030     89.081  -161.280
226.274     89.017  -161.722
229.565     88.989  -162.282
232.905     88.958  -162.972
236.292     88.888  -163.659
239.729     88.799  -164.194
243.216     88.824  -164.738
246.754     88.739  -165.167
250.343     88.639  -165.431
253.984     88.556  -165.682
257.678     88.503  -165.929
261.426     88.429  -166.132
265.229     88.427  -166.289
269.087     88.403  -166.446
273.001     88.399  -166.599
276.972     88.399  -166.836
281.000     88.400  -167.194
285.088     88.399  -167.670
289.234     88.499  -168.222
293.441     88.499  -168.850
297.709     88.499  -169.547
302.040     88.499  -170.290
306.433     88.407  -171.081
310.890     88.337  -171.894
315.412     88.232  -172.663
320.000     88.168  -173.355
324.655     88.157  -173.943
329.377     88.022  -174.398
334.168     87.849  -174.724
339.028     87.676  -174.869
343.959     87.528  -174.833
348.962     87.507  -174.636
354.038     87.420  -174.309
359.188     87.306  -173.879
364.412     87.212  -173.394
369.713     87.149  -172.929
375.090     87.199  -172.538
380.546     87.206  -172.252
386.081     87.299  -172.109
391.697     87.212  -172.115
397.394     87.199  -172.262
403.175     87.272  -172.506
409.039     87.199  -172.814
414.989     87.162  -173.129
421.025     87.052  -173.379
427.149     86.912  -173.507
433.362     86.740  -173.460
439.665     86.549  -173.184
446.060     86.323  -172.662
452.548     86.160  -171.896
459.131     85.999  -170.895
465.809     85.857  -169.699
472.584     85.760  -168.411
479.458     85.599  -167.101
486.432     85.599  -165.792
493.507     85.499  -164.520
500.686     85.499  -163.290
507.968     85.499  -162.107
515.357     85.399  -160.923
522.853     85.399  -159.652
530.458     85.299  -158.244
538.174     85.299  -156.708
546.002     85.199  -155.061
553.943     85.313  -153.316
562.001     85.344  -151.557
570.175     85.547  -149.893
578.469     85.695  -148.425
586.883     85.982  -147.253
595.419     86.182  -146.393
604.080     86.503  -145.817
612.866     86.836  -145.504
621.780     87.067  -145.440
630.824     87.431  -145.623
640.000     87.679  -146.073
649.309     88.039  -146.824
658.753     88.391  -147.940
668.335     88.751  -149.498
678.056     88.980  -151.444
687.919     89.267  -153.774
697.925     89.499  -156.408
708.077     89.703  -159.202
718.376     89.878  -162.113
728.825     89.989  -165.090
739.426     89.933  -168.137
750.181     89.999  -171.319
761.093     89.999  -174.736
772.163     89.999  -178.411
783.394     89.983   177.580
794.789     89.765   173.257
806.349     89.386   168.965
818.078     88.847   164.952
829.977     88.174   161.580
842.050     87.396   159.200
854.298     86.581   157.965
866.724     85.914   157.770
879.330     85.208   158.252
892.120     84.576   159.257
905.097     84.030   160.978
918.262     83.427   163.116
931.618     82.980   165.584
945.169     82.529   168.236
958.917     82.175   170.603
972.864     81.978   172.238
987.015     81.627   173.135
1001.37     81.257   173.825
1015.94     80.677   175.032
1030.71     80.189   177.174
1045.71     79.706  -179.946
1060.92     79.485  -177.140
1076.35     79.254  -175.188
1092.00     78.978  -174.088
1107.89     78.576  -173.170
1124.00     78.140  -171.440
1140.35     77.606  -168.157
1156.94     77.269  -163.492
1173.77     77.240  -158.586
1190.84     77.465  -154.319
1208.16     77.859  -150.721
1225.73     78.428  -147.849
1243.56     79.266  -146.625
1261.65     80.221  -147.970
1280.00     81.055  -151.654
1298.62     81.681  -156.679
1317.51     82.145  -162.261
1336.67     82.518  -168.154
1356.11     82.814  -174.421
1375.84     83.046   178.801
1395.85     83.177   171.694
1416.15     83.199   165.034
1436.75     83.222   159.814
1457.65     83.280   155.474
1478.85     83.630   150.661
1500.36     84.085   144.220
1522.19     84.444   136.049
1544.33     84.645   126.883
1566.79     84.699   117.124
1589.58     84.529   106.766
1612.70     84.116    96.531
1636.16     83.487    87.890
1659.95     82.871    81.797
1684.10     82.565    77.125
1708.60     82.657    71.527
1733.45     82.902    63.671
1758.66     83.070    53.578
1784.24     82.989    42.307
1810.19     82.661    31.077
1836.52     82.114    20.976
1863.24     81.678    12.896
1890.34     81.668     5.169
1917.83     81.868    -4.801
1945.73     81.899   -16.263
1974.03     81.899   -27.447
2002.74     81.977   -38.968
2031.87     81.999   -51.437
2061.43     81.999   -64.034
2091.41     81.916   -76.602
2121.83     81.764   -88.838
2152.69     81.760  -100.905
2184.01     81.763  -113.974
2215.77     81.577  -127.086
2248.00     81.357  -139.350
2280.70     81.155  -151.798
2313.87     80.798  -164.100
2347.53     80.433  -175.147
2381.68     80.240   173.622
2416.32     79.922   161.553
2451.46     79.527   150.788
2487.12     79.280   139.889
2523.30     78.877   129.097
2560.00     78.619   119.153
2597.24     78.510   107.527
2635.01     78.238    95.291
2673.34     77.809    82.874
2712.23     77.280    71.201
2751.68     76.690    59.263
2791.70     75.984    48.394
2832.31     75.271    37.738
2873.50     74.481    28.799
2915.30     73.750    20.296
2957.70     73.137    14.621
3000.72     72.964     7.340
3044.37     72.641     0.992
3088.65     72.768    -5.165
3133.58     73.210   -12.632
3179.16     73.497   -22.472
3225.40     73.830   -31.227
3272.31     74.204   -41.632
3319.91     74.711   -51.239
3368.20     75.289   -62.327
3417.19     75.879   -74.632
3466.89     76.487   -87.333
3517.32     77.001  -101.126
3568.48     77.548  -114.341
3620.39     78.119  -129.450
3673.05     78.629  -145.147
3726.47     78.975  -161.371
3780.67     79.200  -177.697
3835.67     79.486   166.390
3891.46     79.789   149.889
3948.06     79.949   132.924
4005.49     80.102   116.094
4063.75     80.441    98.940
4122.86     80.599    79.908
4182.82     80.530    61.505
4243.66     80.499    43.619
4305.39     80.542    25.838
4368.01     80.499     7.680
4431.55     80.574   -10.559
4496.01     80.599   -29.237
4561.40     80.669   -48.190
4627.75     80.709   -67.425
4695.06     80.727   -87.408
4763.35     80.699  -107.476
4832.64     80.562  -127.838
4902.93     80.423  -147.410
4974.24     80.399  -167.452
5046.60     80.441   172.221
5120.00     80.473   150.586
5194.47     80.268   128.338
5270.03     80.087   106.850
5346.68     79.889    84.212
5424.45     79.482    61.994
5503.35     79.190    40.814
5583.40     78.992    18.638
5664.61     78.656    -3.742
5747.01     78.412   -26.215
5830.60     78.056   -49.887
5915.41     77.445   -72.425
6001.45     77.104   -94.054
6088.74     76.701  -116.990
6177.30     76.344  -138.966
6267.15     76.063  -162.922
6358.31     75.520   174.540
6450.80     75.063   152.249
6544.62     74.587   131.229
6639.82     74.409   111.200
6736.40     74.676    90.353
6834.38     74.975    66.832
6933.79     75.227    42.560
7034.64     75.458    18.226
7136.96     75.873    -6.876
7240.77     76.397   -33.682
7346.09     76.687   -63.193
7452.94     76.735   -92.205
7561.35     76.746  -121.344
7671.33     76.699  -149.324
7782.91     76.818  -177.286
7896.12     77.097   153.827
8010.97     77.406   123.067
8127.49     77.553    91.517
8245.71     77.764    59.379
8365.65     77.861    26.815
8487.33     77.899    -6.315
8610.78     77.899   -39.322
8736.03     77.948   -72.337
8863.09     78.118  -106.094
8992.01     78.274  -140.968
9122.80     78.264  -177.098
9255.50     78.135   146.925
9390.12     77.912   111.678
9526.70     77.868    76.131
9665.27     77.799    40.176
9805.86     77.718     3.427
9948.49     77.765   -33.874
10093.2     77.651   -72.208
10240.0     77.431  -110.161
10388.9     77.399  -147.865
10540.1     77.458   173.023
10693.4     77.491   132.229
10848.9     77.279    90.341
11006.7     76.939    49.384
11166.8     76.697     9.135
11329.2     76.599   -31.458
11494.0     76.676   -73.000
11661.2     76.781  -116.172
11830.8     76.799  -160.067
12002.9     76.898   156.080
12177.5     77.172   110.771
12354.6     77.380    63.306
12534.3     77.349    14.994
12716.6     77.299   -33.196
12901.6     77.309   -81.914
13089.2     77.399  -132.365
13279.6     77.399   175.619
13472.8     77.313   123.177
13668.8     77.272    69.572
13867.6     77.050    14.424
14069.3     76.632   -40.551
14273.9     76.279   -94.562
14481.5     76.108  -149.432
14692.2     75.983   154.055
14905.9     75.800    96.099
15122.7     75.541    37.942
15342.7     75.399   -20.541
15565.8     75.299   -80.703
15792.2     75.079  -141.641
16021.9     74.914   157.270
16255.0     74.999    94.031
16491.4     74.903    28.135
16731.3     74.924   -39.454
16974.7     75.045  -110.216
17221.6     74.889   173.115
17472.1     73.832    92.090
17726.2     71.588    10.909
17984.0     67.989   -61.459
18245.6     64.593  -122.408
18511.0     62.599   173.337
18780.2     59.275   110.435
19053.4     56.406    71.037
19330.5     58.530    23.105
19611.7     60.632   -50.080
19897.0     61.248  -119.130
20186.4     60.933  -174.627
20480.0     60.618   129.876
20777.9     60.303    74.384
21080.1     59.988    18.887
21386.7     59.673   -36.610
21697.8     59.357   -92.100
22013.4     59.042  -147.594
22333.6     58.727   156.913
22658.4     58.412   101.412
22988.0     58.097    45.922
23322.4     57.782    -9.567
23661.6     57.467   -65.066
24005.8     57.152  -120.554
24355.0     56.837  -176.043
24709.2     56.522   128.455
25068.6     56.207    72.960
25433.2     55.891    17.462
25803.2     55.576   -38.022
26178.5     55.261   -93.518
26559.3     54.946  -149.008
26945.6     54.631   155.496
27337.5     54.316    99.997
27735.2     54.001    44.512
28138.6     53.686   -10.983
28547.9     53.371   -66.475
28963.1     53.056  -121.974
29384.4     52.741  -177.465
29811.8     52.425   127.040
30245.4     52.110    71.544
30685.3     51.795    16.046
31131.7     51.480   -39.439
31584.5     51.165   -94.935
32043.9     50.850  -150.430
32510.0     50.535   154.078
32982.8     50.220    98.576
33462.6     49.905    43.088
33949.3     49.590   -12.408
34443.1     49.275   -67.903
34944.1     48.960  -123.394
35452.4     48.644  -178.886
35968.0     48.329   125.613
36491.2     48.014    70.123
37022.0     47.699    14.631
37560.5     47.384   -40.862
38106.8     47.069   -96.359
38661.1     46.754  -151.850
39223.4     46.439   152.652
39793.9     46.124    97.156
