Freq[Hz]     dBSPL  Phase[Deg]
5.00000     45.099    52.964
5.07273     45.306    52.795
5.14651     45.513    52.626
5.22137     45.721    52.457
5.29732     45.934    52.282
5.37437     46.151    52.105
5.45254     46.369    51.927
5.53185     46.577    51.747
5.61231     46.772    51.561
5.69394     46.967    51.375
5.77676     47.164    51.187
5.86079     47.368    50.993
5.94604     47.572    50.799
6.03252     47.778    50.602
6.12027     47.991    50.400
6.20929     48.203    50.198
6.29961     48.420    49.992
6.39124     48.641    49.781
6.48420     48.862    49.571
6.57851     49.058    49.353
6.67420     49.249    49.135
6.77128     49.451    48.914
6.86977     49.689    48.687
6.96969     49.927    48.460
7.07107     50.143    48.227
7.17392     50.349    47.992
7.27827     50.556    47.755
7.38413     50.769    47.511
7.49154     50.982    47.268
7.60050     51.202    47.017
7.71105     51.422    46.765
7.82321     51.617    46.508
7.93701     51.799    46.248
8.05245     52.005    45.984
8.16958     52.240    45.716
8.28841     52.461    45.445
8.40896     52.655    45.169
8.53128     52.850    44.890
8.65537     53.049    44.606
8.78126     53.250    44.319
8.90899     53.455    44.026
9.03857     53.661    43.730
9.17004     53.872    43.429
9.30342     54.085    43.124
9.43874     54.302    42.815
9.57603     54.522    42.501
9.71532     54.744    42.183
9.85663     54.971    41.859
10.0000     55.199    41.533
10.1455     55.374    41.199
10.2930     55.569    40.862
10.4427     55.808    40.519
10.5946     56.013    40.172
10.7487     56.197    39.821
10.9051     56.448    39.462
11.0637     56.676    39.099
11.2246     56.869    38.732
11.3879     57.065    38.358
11.5535     57.264    37.979
11.7216     57.465    37.595
11.8921     57.670    37.205
12.0650     57.878    36.809
12.2405     58.088    36.409
12.4186     58.302    36.001
12.5992     58.519    35.588
12.7825     58.738    35.169
12.9684     58.961    34.743
13.1570     59.188    34.312
13.3484     59.378    33.874
13.5426     59.550    33.430
13.7395     59.787    32.980
13.9394     60.027    32.522
14.1421     60.213    32.058
14.3478     60.417    31.588
14.5565     60.645    31.111
14.7683     60.821    30.627
14.9831     61.079    30.135
15.2010     61.260    29.636
15.4221     61.506    29.129
15.6464     61.717    28.615
15.8740     61.899    28.093
16.1049     62.083    27.565
16.3392     62.307    27.028
16.5768     62.561    26.484
16.8179     62.754    25.931
17.0626     62.949    25.371
17.3107     63.148    24.802
17.5625     63.349    24.225
17.8180     63.554    23.640
18.0771     63.761    23.046
18.3401     63.971    22.443
18.6068     64.185    21.832
18.8775     64.401    21.212
19.1521     64.621    20.582
19.4306     64.844    19.944
19.7133     65.070    19.297
20.0000     65.299    18.640
20.2909     65.532    17.916
20.5860     65.768    16.532
20.8855     65.953    15.233
21.1893     66.151    14.338
21.4975     66.298    13.876
21.8102     66.423    13.774
22.1274     66.652    13.747
22.4492     66.959    13.539
22.7758     67.230    12.899
23.1071     67.585    11.736
23.4432     67.776    10.323
23.7841     67.899     9.049
24.1301     67.951     8.328
24.4811     68.184     8.103
24.8372     68.369     8.054
25.1984     68.737     7.596
25.5649     69.051     6.309
25.9368     69.349     4.284
26.3141     69.525     1.984
26.6968     69.599    -0.013
27.0851     69.599    -1.266
27.4791     69.691    -1.819
27.8788     69.951    -2.067
28.2843     70.127    -2.458
28.6957     70.456    -3.135
29.1131     70.690    -3.965
29.5365     71.028    -4.861
29.9661     71.286    -5.871
30.4020     71.560    -7.061
30.8442     71.737    -8.221
31.2929     71.899    -8.981
31.7480     71.998    -9.101
32.2098     72.267    -8.772
32.6783     72.570    -8.706
33.1536     72.922    -9.290
33.6359     73.208   -10.365
34.1251     73.449   -11.473
34.6215     73.648   -12.246
35.1250     73.949   -12.720
35.6359     74.253   -13.193
36.1543     74.523   -13.988
36.6802     74.843   -15.265
37.2137     75.085   -16.898
37.7550     75.201   -18.397
38.3041     75.321   -19.153
38.8613     75.544   -19.420
39.4265     75.840   -19.967
40.0000     75.999   -21.171
40.5818     76.199   -22.391
41.1721     76.299   -22.789
41.7710     76.507   -22.790
42.3785     76.750   -23.302
42.9949     76.997   -24.055
43.6203     77.147   -24.444
44.2548     77.501   -24.961
44.8985     77.758   -26.315
45.5515     77.999   -27.678
46.2141     78.099   -28.452
46.8863     78.354   -29.335
47.5683     78.599   -30.551
48.2602     78.803   -31.274
48.9621     79.084   -31.967
49.6743     79.199   -33.138
50.3968     79.358   -33.532
51.1299     79.651   -33.437
51.8736     80.048   -34.764
52.6281     80.250   -36.304
53.3936     80.356   -36.238
54.1702     80.767   -36.811
54.9581     81.082   -38.944
55.7575     81.102   -39.904
56.5685     81.326   -40.116
57.3914     81.556   -41.279
58.2261     81.799   -42.410
59.0730     81.999   -43.274
59.9323     82.099   -44.074
60.8040     82.399   -44.590
61.6884     82.574   -45.621
62.5857     82.799   -46.404
63.4960     83.097   -47.209
64.4196     83.299   -49.135
65.3566     83.399   -49.949
66.3073     83.722   -50.348
67.2717     83.999   -52.183
68.2502     84.099   -53.492
69.2429     84.296   -53.849
70.2501     84.599   -54.670
71.2719     84.699   -56.349
72.3086     84.899   -56.924
73.3603     85.243   -57.404
74.4274     85.499   -58.848
75.5099     85.699   -60.410
76.6083     85.899   -61.573
77.7226     86.188   -62.566
78.8531     86.340   -64.604
80.0000     86.399   -65.706
81.1636     86.664   -66.370
82.3442     86.799   -67.940
83.5419     86.899   -69.440
84.7570     87.002   -70.086
85.9899     87.295   -70.961
87.2406     87.495   -72.310
88.5096     87.699   -73.430
89.7970     87.918   -74.818
91.1031     88.149   -76.580
92.4282     88.339   -78.173
93.7726     88.499   -79.681
95.1366     88.716   -81.693
96.5204     88.859   -83.614
97.9243     88.899   -85.696
99.3486     88.899   -87.602
100.794     88.932   -88.742
102.260     89.066   -89.493
103.747     89.179   -90.664
105.256     89.328   -91.935
106.787     89.449   -93.593
108.340     89.566   -95.093
109.916     89.632   -96.704
111.515     89.828   -98.283
113.137     89.899   -99.795
114.783     89.999  -101.418
116.452     89.956  -103.022
118.146     90.028  -104.347
119.865     90.132  -105.504
121.608     90.185  -107.152
123.377     90.199  -108.538
125.171     90.199  -109.906
126.992     90.199  -111.254
128.839     90.286  -112.584
130.713     90.228  -113.893
132.615     90.299  -115.023
134.543     90.299  -116.585
136.500     90.370  -118.152
138.486     90.399  -119.601
140.500     90.332  -121.236
142.544     90.162  -122.392
144.617     90.099  -123.072
146.721     90.099  -123.658
148.855     90.062  -124.492
151.020     89.999  -125.147
153.217     89.999  -125.898
155.445     89.999  -126.889
157.706     89.999  -127.747
160.000     89.943  -128.737
162.327     89.899  -129.717
164.688     89.866  -130.448
167.084     89.749  -130.638
169.514     89.777  -130.484
171.980     89.798  -130.687
174.481     89.845  -131.293
177.019     89.765  -132.224
179.594     89.690  -132.637
182.206     89.687  -132.858
184.856     89.685  -133.361
187.545     89.684  -133.925
190.273     89.687  -134.227
193.041     89.700  -134.309
195.849     89.699  -134.908
198.697     89.621  -135.179
201.587     89.552  -135.121
204.520     89.536  -135.206
207.494     89.542  -135.373
210.512     89.547  -135.712
213.574     89.552  -136.049
216.681     89.577  -136.318
219.833     89.571  -136.457
223.030     89.570  -136.526
226.274     89.517  -136.518
229.565     89.523  -136.627
232.905     89.514  -136.874
236.292     89.499  -137.129
239.729     89.499  -137.231
243.216     89.535  -137.369
246.754     89.539  -137.427
250.343     89.439  -137.341
253.984     89.436  -137.287
257.678     89.433  -137.272
261.426     89.438  -137.242
265.229     89.527  -137.203
269.087     89.575  -137.188
273.001     89.599  -137.184
276.972     89.599  -137.267
281.000     89.636  -137.456
285.088     89.699  -137.733
289.234     89.799  -138.057
293.441     89.833  -138.419
297.709     89.899  -138.812
302.040     89.899  -139.212
306.433     89.807  -139.608
310.890     89.799  -139.977
315.412     89.716  -140.280
320.000     89.699  -140.499
324.655     89.791  -140.622
329.377     89.699  -140.640
334.168     89.613  -140.541
339.028     89.537  -140.328
343.959     89.499  -140.012
348.962     89.599  -139.615
354.038     89.585  -139.159
359.188     89.499  -138.653
364.412     89.499  -138.120
369.713     89.499  -137.606
375.090     89.606  -137.132
380.546     89.699  -136.699
386.081     89.786  -136.335
391.697     89.799  -136.035
397.394     89.836  -135.806
403.175     89.999  -135.656
409.039     90.005  -135.566
414.989     90.099  -135.527
421.025     90.099  -135.527
427.149     90.099  -135.543
433.362     90.099  -135.552
439.665     90.099  -135.526
446.060     89.999  -135.435
452.548     89.999  -135.253
459.131     89.910  -134.953
465.809     89.883  -134.521
472.584     89.799  -133.975
479.458     89.699  -133.343
486.432     89.783  -132.651
493.507     89.699  -131.947
500.686     89.699  -131.284
507.968     89.699  -130.711
515.357     89.599  -130.234
522.853     89.689  -129.822
530.458     89.594  -129.429
538.174     89.499  -129.009
546.002     89.399  -128.509
553.943     89.394  -127.880
562.001     89.199  -127.120
570.175     89.251  -126.263
578.469     89.199  -125.378
586.883     89.234  -124.563
595.419     89.199  -123.878
604.080     89.299  -123.329
612.866     89.370  -122.904
621.780     89.319  -122.560
630.824     89.399  -122.244
640.000     89.319  -121.929
649.309     89.399  -121.613
658.753     89.422  -121.320
668.335     89.499  -121.088
678.056     89.414  -120.945
687.919     89.499  -120.864
697.925     89.499  -120.776
708.077     89.499  -120.595
718.376     89.585  -120.265
728.825     89.599  -119.811
739.426     89.558  -119.363
750.181     89.709  -119.120
761.093     89.832  -119.258
772.163     89.922  -119.826
783.394     90.099  -120.730
794.789     90.043  -121.750
806.349     89.867  -122.543
818.078     89.623  -122.841
829.977     89.368  -122.502
842.050     89.123  -121.569
854.298     88.938  -120.266
866.724     88.911  -118.838
879.330     88.799  -117.314
892.120     88.708  -115.423
905.097     88.713  -112.756
918.262     88.721  -109.849
931.618     88.950  -107.275
945.169     89.145  -105.403
958.917     89.338  -104.373
972.864     89.570  -104.023
987.015     89.599  -104.023
1001.37     89.699  -104.084
1015.94     89.689  -104.110
1030.71     89.699  -104.180
1045.71     89.644  -104.385
1060.92     89.639  -104.680
1076.35     89.489  -104.870
1092.00     89.348  -104.809
1107.89     89.233  -104.545
1124.00     89.299  -104.258
1140.35     89.299  -104.072
1156.94     89.299  -104.011
1173.77     89.364  -104.115
1190.84     89.537  -104.621
1208.16     89.748  -105.861
1225.73     89.907  -107.967
1243.56     90.021  -110.694
1261.65     90.105  -113.660
1280.00     90.199  -116.780
1298.62     90.289  -120.273
1317.51     90.357  -124.367
1336.67     90.369  -128.993
1356.11     90.274  -133.898
1375.84     90.112  -138.944
1395.85     89.846  -143.779
1416.15     89.524  -147.484
1436.75     89.265  -149.291
1457.65     89.099  -150.292
1478.85     89.161  -151.727
1500.36     89.265  -153.764
1522.19     89.377  -155.998
1544.33     89.579  -158.516
1566.79     89.828  -162.036
1589.58     89.999  -166.855
1612.70     89.961  -172.105
1636.16     89.784  -176.536
1659.95     89.590  -179.697
1684.10     89.463   177.870
1708.60     89.430   175.682
1733.45     89.565   173.294
1758.66     89.759   169.758
1784.24     89.799   165.187
1810.19     89.691   160.957
1836.52     89.517   157.474
1863.24     89.399   154.249
1890.34     89.314   151.412
1917.83     89.374   148.863
1945.73     89.520   145.871
1974.03     89.650   142.421
2002.74     89.769   138.719
2031.87     89.826   134.710
2061.43     89.813   130.732
2091.41     89.799   127.036
2121.83     89.714   123.537
2152.69     89.699   120.218
2184.01     89.727   116.971
2215.77     89.799   113.182
2248.00     89.710   109.277
2280.70     89.599   106.675
2313.87     89.659   104.169
2347.53     89.699   100.636
2381.68     89.699    97.421
2416.32     89.699    94.254
2451.46     89.631    90.818
2487.12     89.564    88.239
2523.30     89.599    85.568
2560.00     89.534    82.131
2597.24     89.399    79.136
2635.01     89.260    76.945
2673.34     89.224    75.624
2712.23     89.415    73.989
2751.68     89.595    70.724
2791.70     89.544    67.406
2832.31     89.470    65.194
2873.50     89.483    63.535
2915.30     89.650    61.566
2957.70     89.799    58.164
3000.72     89.728    54.644
3044.37     89.550    52.602
3088.65     89.503    50.961
3133.58     89.629    49.180
3179.16     89.699    46.765
3225.40     89.699    44.387
3272.31     89.699    42.119
3319.91     89.790    40.187
3368.20     89.868    38.451
3417.19     90.039    35.889
3466.89     90.163    32.659
3517.32     90.090    29.402
3568.48     89.940    27.503
3620.39     90.028    25.604
3673.05     90.093    22.784
3726.47     89.898    20.155
3780.67     89.729    19.391
3835.67     89.869    18.306
3891.46     89.999    16.247
3948.06     89.916    14.336
4005.49     89.940    13.581
4063.75     90.129    12.535
4122.86     90.282    10.681
4182.82     90.441     8.815
4243.66     90.681     7.035
4305.39     90.952     4.688
4368.01     91.154     1.508
4431.55     91.325    -2.054
4496.01     91.399    -5.918
4561.40     91.399    -9.682
4627.75     91.399   -12.919
4695.06     91.333   -16.627
4763.35     91.135   -20.091
4832.64     90.894   -22.601
4902.93     90.730   -24.176
4974.24     90.699   -25.737
5046.60     90.790   -27.734
5120.00     90.828   -30.922
5194.47     90.717   -34.031
5270.03     90.645   -36.577
5346.68     90.569   -39.765
5424.45     90.314   -42.632
5503.35     90.132   -44.388
5583.40     90.011   -46.833
5664.61     89.753   -48.351
5747.01     89.769   -49.638
5830.60     89.665   -51.954
5915.41     89.599   -53.446
6001.45     89.588   -55.782
6088.74     89.456   -58.225
6177.30     89.381   -60.247
6267.15     89.299   -62.452
6358.31     89.179   -64.316
6450.80     89.099   -65.574
6544.62     89.101   -66.850
6639.82     89.241   -68.203
6736.40     89.405   -70.022
6834.38     89.602   -72.535
6933.79     89.768   -75.692
7034.64     89.799   -79.460
7136.96     89.736   -82.584
7240.77     89.731   -84.652
7346.09     89.854   -87.196
7452.94     89.985   -90.448
7561.35     90.099   -94.340
7671.33     90.099   -98.204
7782.91     90.060  -102.283
7896.12     89.873  -106.224
8010.97     89.702  -109.737
8127.49     89.537  -113.198
8245.71     89.383  -116.758
8365.65     89.107  -120.132
8487.33     88.827  -122.762
8610.78     88.536  -125.489
8736.03     88.272  -127.292
8863.09     88.029  -128.607
8992.01     87.999  -129.626
9122.80     87.939  -131.330
9255.50     87.985  -133.519
9390.12     87.833  -135.645
9526.70     87.731  -137.452
9665.27     87.665  -138.069
9805.86     87.851  -139.090
9948.49     88.148  -141.261
10093.2     88.299  -144.886
10240.0     88.276  -148.679
10388.9     88.199  -151.645
10540.1     88.199  -154.748
10693.4     88.199  -158.446
10848.9     88.075  -162.766
11006.7     87.770  -166.990
11166.8     87.362  -170.234
11329.2     86.946  -172.517
11494.0     86.618  -174.305
11661.2     86.307  -175.703
11830.8     86.053  -176.424
12002.9     85.923  -176.820
12177.5     85.965  -177.905
12354.6     85.885  -179.673
12534.3     85.717   179.187
12716.6     85.621   179.475
12901.6     85.903   179.870
13089.2     86.408   178.189
13279.6     86.802   174.392
13472.8     87.010   170.258
13668.8     87.180   166.215
13867.6     87.299   161.710
14069.3     87.257   157.387
14273.9     87.138   154.171
14481.5     87.099   152.108
14692.2     87.266   150.552
14905.9     87.638   148.554
15122.7     88.192   146.249
15342.7     88.985   142.686
15565.8     89.791   136.833
15792.2     90.478   129.868
16021.9     91.221   122.659
16255.0     92.029   113.903
16491.4     92.723   103.311
16731.3     93.375    91.510
16974.7     93.972    77.214
17221.6     94.155    58.963
17472.1     93.434    39.022
17726.2     91.768    21.550
17984.0     89.374     9.333
18245.6     86.710     3.533
18511.0     84.173     3.306
18780.2     81.994     8.891
19053.4     80.751    19.097
19330.5     80.969    28.507
19611.7     81.939    31.427
19897.0     82.654    29.159
20186.4     82.650    24.648
20480.0     82.645    20.137
20777.9     82.641    15.626
21080.1     82.637    11.115
21386.7     82.633     6.604
21697.8     82.629     2.093
22013.4     82.625    -2.418
22333.6     82.621    -6.929
22658.4     82.617   -11.441
22988.0     82.613   -15.952
23322.4     82.609   -20.463
23661.6     82.605   -24.974
24005.8     82.601   -29.485
24355.0     82.597   -33.996
24709.2     82.593   -38.507
25068.6     82.589   -43.018
25433.2     82.585   -47.530
25803.2     82.580   -52.040
26178.5     82.576   -56.551
26559.3     82.572   -61.063
26945.6     82.568   -65.574
27337.5     82.564   -70.085
27735.2     82.560   -74.595
28138.6     82.556   -79.107
28547.9     82.552   -83.618
28963.1     82.548   -88.129
29384.4     82.544   -92.640
29811.8     82.540   -97.151
30245.4     82.536  -101.662
30685.3     82.532  -106.173
31131.7     82.528  -110.685
31584.5     82.524  -115.196
32043.9     82.520  -119.707
32510.0     82.515  -124.218
32982.8     82.511  -128.729
33462.6     82.507  -133.240
33949.3     82.503  -137.751
34443.1     82.499  -142.262
34944.1     82.495  -146.773
35452.4     82.491  -151.284
35968.0     82.487  -155.796
36491.2     82.483  -160.307
37022.0     82.479  -164.818
37560.5     82.475  -169.329
38106.8     82.471  -173.840
38661.1     82.467  -178.351
39223.4     82.463   177.138
39793.9     82.459   172.627
