Freq[Hz]     dBSPL  Phase[Deg]
5.00000     43.303    51.192
5.07273     43.515    50.995
5.14651     43.727    50.798
5.22137     43.939    50.601
5.29732     44.157    50.398
5.37437     44.379    50.191
5.45254     44.601    49.984
5.53185     44.814    49.774
5.61231     45.014    49.558
5.69394     45.213    49.341
5.77676     45.416    49.122
5.86079     45.624    48.896
5.94604     45.832    48.670
6.03252     46.044    48.441
6.12027     46.261    48.206
6.20929     46.478    47.970
6.29961     46.699    47.729
6.39124     46.925    47.484
6.48420     47.150    47.239
6.57851     47.351    46.986
6.67420     47.547    46.731
6.77128     47.754    46.474
6.86977     47.997    46.210
6.96969     48.240    45.945
7.07107     48.460    45.674
7.17392     48.670    45.400
7.27827     48.883    45.123
7.38413     49.100    44.840
7.49154     49.318    44.556
7.60050     49.542    44.264
7.71105     49.767    43.971
7.82321     49.967    43.672
7.93701     50.154    43.369
8.05245     50.364    43.061
8.16958     50.603    42.749
8.28841     50.830    42.433
8.40896     51.028    42.111
8.53128     51.227    41.787
8.65537     51.431    41.455
8.78126     51.637    41.121
8.90899     51.846    40.780
9.03857     52.058    40.436
9.17004     52.273    40.085
9.30342     52.491    39.730
9.43874     52.713    39.369
9.57603     52.937    39.003
9.71532     53.164    38.633
9.85663     53.395    38.256
10.0000     53.628    37.876
10.1455     53.808    37.487
10.2930     54.007    37.095
10.4427     54.252    36.695
10.5946     54.461    36.291
10.7487     54.650    35.882
10.9051     54.906    35.464
11.0637     55.138    35.041
11.2246     55.336    34.614
11.3879     55.537    34.177
11.5535     55.740    33.736
11.7216     55.946    33.289
11.8921     56.156    32.834
12.0650     56.368    32.374
12.2405     56.583    31.907
12.4186     56.802    31.432
12.5992     57.023    30.951
12.7825     57.247    30.464
12.9684     57.475    29.967
13.1570     57.706    29.465
13.3484     57.901    28.955
13.5426     58.078    28.438
13.7395     58.319    27.914
13.9394     58.564    27.380
14.1421     58.755    26.840
14.3478     58.964    26.292
14.5565     59.196    25.736
14.7683     59.377    25.173
14.9831     59.639    24.600
15.2010     59.825    24.018
15.4221     60.076    23.428
15.6464     60.291    22.830
15.8740     60.478    22.222
16.1049     60.667    21.606
16.3392     60.895    20.982
16.5768     61.154    20.348
16.8179     61.352    19.704
17.0626     61.552    19.052
17.3107     61.755    18.389
17.5625     61.961    17.718
17.8180     62.170    17.036
18.0771     62.383    16.344
18.3401     62.598    15.643
18.6068     62.816    14.931
18.8775     63.037    14.208
19.1521     63.261    13.476
19.4306     63.489    12.732
19.7133     63.719    11.978
20.0000     63.953    11.213
20.2909     64.191    10.380
20.5860     64.390     8.899
20.8855     64.653     7.494
21.1893     64.851     6.492
21.4975     64.998     5.922
21.8102     65.123     5.712
22.1274     65.310     5.575
22.4492     65.589     5.256
22.7758     65.930     4.505
23.1071     66.285     3.230
23.4432     66.476     1.704
23.7841     66.599     0.316
24.1301     66.651    -0.520
24.4811     66.884    -0.862
24.8372     67.151    -1.028
25.1984     67.456    -1.605
25.5649     67.751    -3.011
25.9368     68.049    -5.157
26.3141     68.225    -7.579
26.6968     68.299    -9.700
27.0851     68.395   -11.078
27.4791     68.391   -11.757
27.8788     68.651   -12.133
28.2843     68.827   -12.654
28.6957     69.192   -13.462
29.1131     69.440   -14.425
29.5365     69.728   -15.455
29.9661     69.986   -16.601
30.4020     70.260   -17.928
30.8442     70.437   -19.228
31.2929     70.644   -20.129
31.7480     70.729   -20.393
32.2098     70.967   -20.209
32.6783     71.270   -20.291
33.1536     71.675   -21.024
33.6359     71.923   -22.251
34.1251     72.149   -23.512
34.6215     72.348   -24.442
35.1250     72.649   -25.074
35.6359     72.953   -25.708
36.1543     73.223   -26.665
36.6802     73.543   -28.107
37.2137     73.785   -29.909
37.7550     73.991   -31.577
38.3041     74.021   -32.506
38.8613     74.244   -32.949
39.4265     74.540   -33.674
40.0000     74.699   -35.059
40.5818     74.899   -36.461
41.1721     74.999   -37.046
41.7710     75.207   -37.235
42.3785     75.450   -37.939
42.9949     75.697   -38.886
43.6203     75.847   -39.472
44.2548     76.201   -40.189
44.8985     76.458   -41.747
45.5515     76.699   -43.316
46.2141     76.779   -44.299
46.8863     76.957   -45.395
47.5683     77.299   -46.827
48.2602     77.503   -47.768
48.9621     77.784   -48.684
49.6743     77.899   -50.079
50.3968     78.058   -50.702
51.1299     78.351   -50.839
51.8736     78.648   -52.401
52.6281     78.850   -54.180
53.3936     79.037   -54.357
54.1702     79.467   -55.176
54.9581     79.682   -57.558
55.7575     79.728   -58.771
56.5685     80.026   -59.240
57.3914     80.156   -60.663
58.2261     80.499   -62.059
59.0730     80.599   -63.191
59.9323     80.733   -64.263
60.8040     80.999   -65.055
61.6884     81.174   -66.365
62.5857     81.399   -67.432
63.4960     81.697   -68.525
64.4196     81.899   -70.743
65.3566     81.999   -71.853
66.3073     82.322   -72.552
67.2717     82.569   -74.691
68.2502     82.699   -76.309
69.2429     82.888   -76.979
70.2501     83.116   -78.116
71.2719     83.261   -80.117
72.3086     83.444   -81.018
73.3603     83.775   -81.829
74.4274     83.999   -83.608
75.5099     84.280   -85.510
76.6083     84.399   -87.018
77.7226     84.688   -88.360
78.8531     84.840   -90.752
80.0000     84.899   -92.213
81.1636     85.164   -93.241
82.3442     85.299   -95.179
83.5419     85.312   -97.054
84.7570     85.446   -98.079
85.9899     85.714   -99.338
87.2406     85.895  -101.077
88.5096     86.130  -102.592
89.7970     86.397  -104.380
91.1031     86.549  -106.549
92.4282     86.739  -108.554
93.7726     86.899  -110.480
95.1366     87.116  -112.917
96.5204     87.259  -115.267
97.9243     87.299  -117.787
99.3486     87.299  -120.137
100.794     87.332  -121.727
102.260     87.366  -122.936
103.747     87.579  -124.572
105.256     87.728  -126.316
106.787     87.849  -128.456
108.340     87.866  -130.448
109.916     87.947  -132.557
111.515     88.128  -134.645
113.137     88.199  -136.676
114.783     88.299  -138.829
116.452     88.256  -140.976
118.146     88.328  -142.855
119.865     88.432  -144.580
121.608     88.485  -146.810
123.377     88.499  -148.793
125.171     88.419  -150.774
126.992     88.499  -152.753
128.839     88.586  -154.732
130.713     88.428  -156.709
132.615     88.599  -158.527
134.543     88.582  -160.815
136.500     88.630  -163.134
138.486     88.699  -165.278
140.500     88.582  -167.689
142.544     88.362  -169.705
144.617     88.299  -171.184
146.721     88.266  -172.578
148.855     88.162  -174.302
151.020     88.099  -175.854
153.217     88.099  -177.507
155.445     88.099  -179.402
157.706     88.099   178.837
160.000     88.029   176.872
162.327     87.899   174.922
164.688     87.816   173.305
167.084     87.678   172.167
169.514     87.677   171.313
171.980     87.598   170.122
174.481     87.595   168.614
177.019     87.465   166.799
179.594     87.304   165.454
182.206     87.262   164.256
184.856     87.185   162.799
187.545     87.127   161.364
190.273     87.037   160.149
193.041     86.972   159.172
195.849     86.899   157.697
198.697     86.746   156.510
201.587     86.652   155.667
204.520     86.536   154.697
207.494     86.479   153.658
210.512     86.402   152.407
213.574     86.340   151.169
216.681     86.214   150.063
219.833     86.182   149.047
223.030     86.081   148.062
226.274     85.939   147.170
229.565     85.867   146.176
232.905     85.769   145.066
236.292     85.655   143.971
239.729     85.559   143.012
243.216     85.502   142.052
246.754     85.389   141.211
250.343     85.269   140.520
253.984     85.156   139.845
257.678     85.053   139.181
261.426     84.966   138.548
265.229     84.927   137.968
269.087     84.903   137.398
273.001     84.899   136.842
276.972     84.899   136.207
281.000     84.854   135.437
285.088     84.799   134.529
289.234     84.917   133.536
293.441     84.999   132.450
297.709     84.999   131.269
302.040     84.999   130.006
306.433     84.999   128.627
310.890     84.968   127.140
315.412     84.899   125.630
320.000     84.899   124.122
324.655     84.949   122.644
329.377     84.853   121.224
334.168     84.742   119.783
339.028     84.614   118.461
343.959     84.478   117.280
348.962     84.499   116.243
354.038     84.413   115.349
359.188     84.306   114.551
364.412     84.206   113.827
369.713     84.142   113.154
375.090     84.199   112.471
380.546     84.246   111.687
386.081     84.299   110.768
391.697     84.318   109.629
397.394     84.399   108.229
403.175     84.499   106.657
409.039     84.499   104.830
414.989     84.599   102.781
421.025     84.564   100.622
427.149     84.480    98.424
433.362     84.358    96.259
439.665     84.221    94.072
446.060     83.975    92.060
452.548     83.805    90.276
459.131     83.588    88.694
465.809     83.367    87.326
472.584     83.166    86.167
479.458     82.946    85.140
486.432     82.841    84.128
493.507     82.624    83.040
500.686     82.514    81.808
507.968     82.409    80.438
515.357     82.204    78.956
522.853     82.118    77.389
530.458     81.861    75.831
538.174     81.623    74.422
546.002     81.328    73.237
553.943     81.144    72.291
562.001     80.894    71.561
570.175     80.799    70.949
578.469     80.699    70.280
586.883     80.699    69.371
595.419     80.651    68.070
604.080     80.720    66.259
612.866     80.799    63.926
621.780     80.699    61.134
630.824     80.667    58.018
640.000     80.447    54.818
649.309     80.247    51.722
658.753     79.995    48.843
668.335     79.695    46.280
678.056     79.295    44.197
687.919     79.024    42.499
697.925     78.829    40.987
708.077     78.703    39.393
718.376     78.699    37.374
728.825     78.696    34.696
739.426     78.499    31.290
750.181     78.402    27.261
761.093     78.119    22.888
772.163     77.686    18.653
783.394     77.241    14.976
794.789     76.552    12.307
806.349     75.834    11.011
818.078     75.238    10.862
829.977     74.849    11.083
842.050     74.643    10.678
854.298     74.526     9.009
866.724     74.428     6.088
879.330     74.085     2.288
892.120     73.508    -1.480
905.097     72.763    -4.172
918.262     71.738    -5.449
931.618     70.726    -4.698
945.169     69.710    -1.336
958.917     69.102     3.985
972.864     69.212     8.741
987.015     69.617    10.238
1001.37     70.089     7.764
1015.94     70.097     2.571
1030.71     69.732    -3.236
1045.71     68.859    -7.784
1060.92     67.918    -9.813
1076.35     67.080    -9.893
1092.00     66.569   -10.296
1107.89     66.183   -12.707
1124.00     65.772   -17.029
1140.35     65.057   -22.660
1156.94     64.110   -29.928
1173.77     62.769   -39.610
1190.84     60.595   -51.824
1208.16     56.801   -62.559
1225.73     50.448   -41.656
1243.56     49.523    20.404
1261.65     53.625    30.122
1280.00     54.275    14.314
1298.62     51.601    11.394
1317.51     50.393    47.411
1336.67     55.395    68.383
1356.11     58.488    52.793
1375.84     58.790    29.740
1395.85     56.464    15.125
1416.15     52.940    29.615
1436.75     54.235    57.999
1457.65     57.382    63.520
1478.85     59.480    57.448
1500.36     60.748    48.450
1522.19     61.041    39.054
1544.33     60.568    36.712
1566.79     61.243    43.072
1589.58     63.477    43.122
1612.70     65.085    32.490
1636.16     65.573    20.493
1659.95     65.644    12.935
1684.10     66.099     7.127
1708.60     66.727    -1.703
1733.45     66.903   -12.998
1758.66     66.505   -23.314
1784.24     65.850   -29.076
1810.19     65.820   -31.308
1836.52     66.503   -37.254
1863.24     66.928   -49.565
1890.34     66.466   -63.505
1917.83     65.390   -75.200
1945.73     63.894   -84.348
1974.03     61.949   -87.451
2002.74     60.850   -83.419
2031.87     60.870   -84.293
2061.43     60.314   -87.214
2091.41     60.421   -84.957
2121.83     61.638   -91.535
2152.69     61.780  -110.134
2184.01     59.782  -130.890
2215.77     55.047  -131.997
2248.00     52.280  -100.236
2280.70     53.877   -88.726
2313.87     53.965   -83.157
2347.53     56.450   -70.090
2381.68     59.548   -79.383
2416.32     59.910   -99.588
2451.46     58.818  -108.919
2487.12     58.420  -113.821
2523.30     57.607  -120.980
2560.00     56.080  -116.700
2597.24     57.710  -105.210
2635.01     59.561  -115.091
2673.34     59.926  -125.874
2712.23     60.167  -138.594
2751.68     59.570  -149.245
2791.70     58.967  -163.196
2832.31     56.422  -168.518
2873.50     55.002  -162.612
2915.30     56.187  -154.516
2957.70     58.214  -171.375
3000.72     57.358   165.975
3044.37     55.797   146.662
3088.65     52.790   121.502
3133.58     48.827    56.299
3179.16     49.171   -42.387
3225.40     52.515   -97.693
3272.31     54.511  -125.493
3319.91     54.166  -147.511
3368.20     53.100  -150.994
3417.19     52.932  -148.136
3466.89     54.770  -144.866
3517.32     56.600  -152.715
3568.48     57.561  -168.693
3620.39     57.184   173.668
3673.05     55.355   158.619
3726.47     52.951   153.363
3780.67     50.914   156.377
3835.67     49.224   157.387
3891.46     47.358   167.696
3948.06     47.411  -167.270
4005.49     50.213  -151.054
4063.75     52.274  -150.404
4122.86     54.745  -152.866
4182.82     55.363  -172.247
4243.66     55.648  -176.771
4305.39     56.703   168.358
4368.01     55.616   159.961
4431.55     54.762   145.571
4496.01     52.375   154.280
4561.40     54.175   158.939
4627.75     54.090   148.945
4695.06     53.043   132.446
4763.35     50.092   151.831
4832.64     52.782   170.862
4902.93     55.947   161.030
4974.24     55.873   140.079
5046.60     55.182   131.810
5120.00     54.980   133.039
5194.47     56.452   123.182
5270.03     56.397   104.461
5346.68     53.887    89.072
5424.45     51.216   109.574
5503.35     53.758   115.774
5583.40     53.854    94.723
5664.61     50.776    99.888
5747.01     53.134   114.465
5830.60     55.332   102.052
5915.41     54.693    89.357
6001.45     54.484    85.253
6088.74     55.381    78.108
6177.30     55.311    64.594
6267.15     53.856    58.451
6358.31     53.623    61.963
6450.80     54.221    55.830
6544.62     53.784    53.391
6639.82     54.435    54.923
6736.40     55.672    47.589
6834.38     55.896    39.699
6933.79     56.367    32.735
7034.64     56.350    20.662
7136.96     56.099    13.414
7240.77     55.648     3.528
7346.09     55.222     0.614
7452.94     55.843    -3.669
7561.35     56.500    -9.900
7671.33     57.311   -21.219
7782.91     57.622   -34.680
7896.12     57.079   -46.153
8010.97     56.612   -53.939
8127.49     56.275   -59.945
8245.71     56.385   -65.006
8365.65     56.715   -70.449
8487.33     56.975   -79.734
8610.78     57.148   -90.882
8736.03     56.844  -104.080
8863.09     56.247  -115.815
8992.01     55.772  -125.561
9122.80     55.018  -135.717
9255.50     54.622  -144.060
9390.12     54.188  -151.926
9526.70     54.180  -159.509
9665.27     53.805  -170.456
9805.86     53.038  -179.316
9948.49     52.354   170.858
10093.2     50.960   161.620
10240.0     49.995   152.062
10388.9     49.351   148.067
10540.1     48.244   135.815
10693.4     46.524   134.677
10848.9     45.663   131.464
11006.7     45.917   133.104
11166.8     45.308   129.684
11329.2     45.707   126.407
11494.0     44.941   119.800
11661.2     44.617   116.988
11830.8     43.874   117.445
12002.9     44.847   116.106
12177.5     45.560   108.426
12354.6     45.799    95.519
12534.3     46.052    88.405
12716.6     46.803    81.713
12901.6     47.371    70.473
13089.2     47.444    54.490
13279.6     47.361    44.366
13472.8     47.354    36.193
13668.8     47.015    20.457
13867.6     46.202     8.249
14069.3     45.922    -2.070
14273.9     45.217   -10.292
14481.5     45.133    -7.211
14692.2     45.314   -13.792
14905.9     45.848   -23.370
15122.7     46.663   -38.314
15342.7     47.119   -52.969
15565.8     47.680   -70.583
15792.2     48.016   -88.877
16021.9     48.841  -105.677
16255.0     48.934  -122.916
16491.4     48.118  -144.946
16731.3     47.079  -169.697
16974.7     47.428   167.120
17221.6     48.149   149.888
17472.1     47.660   137.400
17726.2     45.413   114.471
17984.0     41.514    79.918
18245.6     38.370    49.849
18511.0     36.888    44.292
18780.2     34.174    59.933
19053.4     33.638    90.183
19330.5     33.916    88.348
19611.7     34.091    43.405
19897.0     35.734    15.214
20186.4     35.548     4.006
20480.0     35.362    -7.201
20777.9     35.175   -18.407
21080.1     34.989   -29.614
21386.7     34.802   -40.821
21697.8     34.616   -52.026
22013.4     34.430   -63.232
22333.6     34.243   -74.438
22658.4     34.057   -85.646
22988.0     33.870   -96.851
23322.4     33.684  -108.056
23661.6     33.498  -119.263
24005.8     33.311  -130.468
24355.0     33.125  -141.674
24709.2     32.938  -152.881
25068.6     32.752  -164.088
25433.2     32.566  -175.294
25803.2     32.379   173.502
26178.5     32.193   162.295
26559.3     32.007   151.090
26945.6     31.820   139.883
27337.5     31.634   128.676
27735.2     31.447   117.472
28138.6     31.261   106.266
28547.9     31.075    95.059
28963.1     30.888    83.852
29384.4     30.702    72.647
29811.8     30.515    61.441
30245.4     30.329    50.234
30685.3     30.143    39.027
31131.7     29.956    27.823
31584.5     29.770    16.617
32043.9     29.583     5.410
32510.0     29.397    -5.795
32982.8     29.211   -17.004
33462.6     29.024   -28.209
33949.3     28.838   -39.415
34443.1     28.651   -50.621
34944.1     28.465   -61.827
35452.4     28.279   -73.033
35968.0     28.092   -84.240
36491.2     27.906   -95.445
37022.0     27.719  -106.651
37560.5     27.533  -117.857
38106.8     27.347  -129.063
38661.1     27.160  -140.270
39223.4     26.974  -151.477
39793.9     26.787  -162.683
