Freq[Hz]     dBSPL  Phase[Deg]
5.00000     43.243    47.756
5.07273     43.459    47.568
5.14651     43.675    47.381
5.22137     43.891    47.192
5.29732     44.113    46.999
5.37437     44.339    46.802
5.45254     44.565    46.604
5.53185     44.783    46.403
5.61231     44.986    46.197
5.69394     45.190    45.991
5.77676     45.397    45.781
5.86079     45.609    45.566
5.94604     45.821    45.351
6.03252     46.037    45.132
6.12027     46.258    44.907
6.20929     46.479    44.683
6.29961     46.705    44.453
6.39124     46.935    44.219
6.48420     47.165    43.985
6.57851     47.370    43.744
6.67420     47.570    43.501
6.77128     47.780    43.255
6.86977     48.027    43.004
6.96969     48.274    42.751
7.07107     48.499    42.493
7.17392     48.713    42.231
7.27827     48.930    41.967
7.38413     49.152    41.697
7.49154     49.373    41.426
7.60050     49.602    41.147
7.71105     49.831    40.868
7.82321     50.035    40.582
7.93701     50.226    40.293
8.05245     50.440    40.000
8.16958     50.684    39.702
8.28841     50.914    39.401
8.40896     51.116    39.094
8.53128     51.320    38.784
8.65537     51.528    38.468
8.78126     51.738    38.149
8.90899     51.952    37.824
9.03857     52.167    37.495
9.17004     52.387    37.160
9.30342     52.609    36.822
9.43874     52.834    36.478
9.57603     53.063    36.129
9.71532     53.294    35.776
9.85663     53.530    35.416
10.0000     53.767    35.054
10.1455     53.951    34.682
10.2930     54.154    34.308
10.4427     54.402    33.927
10.5946     54.616    33.541
10.7487     54.809    33.151
10.9051     55.069    32.752
11.0637     55.305    32.349
11.2246     55.507    31.941
11.3879     55.712    31.525
11.5535     55.920    31.104
11.7216     56.130    30.678
11.8921     56.344    30.244
12.0650     56.560    29.805
12.2405     56.779    29.359
12.4186     57.002    28.906
12.5992     57.228    28.447
12.7825     57.456    27.982
12.9684     57.688    27.509
13.1570     57.923    27.029
13.3484     58.122    26.543
13.5426     58.303    26.050
13.7395     58.548    25.550
13.9394     58.797    25.041
14.1421     58.993    24.525
14.3478     59.205    24.002
14.5565     59.442    23.473
14.7683     59.627    22.935
14.9831     59.894    22.388
15.2010     60.084    21.833
15.4221     60.338    21.271
15.6464     60.558    20.699
15.8740     60.749    20.120
16.1049     60.942    19.532
16.3392     61.174    18.937
16.5768     61.437    18.332
16.8179     61.639    17.718
17.0626     61.843    17.095
17.3107     62.051    16.463
17.5625     62.261    15.822
17.8180     62.474    15.172
18.0771     62.690    14.512
18.3401     62.910    13.843
18.6068     63.132    13.164
18.8775     63.357    12.474
19.1521     63.586    11.775
19.4306     63.817    11.066
19.7133     64.052    10.347
20.0000     64.290     9.617
20.2909     64.532     8.820
20.5860     64.790     7.353
20.8855     65.053     5.967
21.1893     65.251     4.988
21.4975     65.328     4.444
21.8102     65.479     4.262
22.1274     65.710     4.156
22.4492     65.989     3.871
22.7758     66.330     3.156
23.1071     66.685     1.921
23.4432     66.876     0.437
23.7841     66.999    -0.907
24.1301     67.051    -1.696
24.4811     67.284    -1.989
24.8372     67.551    -2.103
25.1984     67.937    -2.627
25.5649     68.251    -3.977
25.9368     68.549    -6.066
26.3141     68.725    -8.428
26.6968     68.799   -10.488
27.0851     68.895   -11.803
27.4791     68.991   -12.418
27.8788     69.251   -12.728
28.2843     69.427   -13.182
28.6957     69.756   -13.922
29.1131     69.990   -14.814
29.5365     70.328   -15.774
29.9661     70.586   -16.848
30.4020     70.958   -18.103
30.8442     71.037   -19.328
31.2929     71.244   -20.155
31.7480     71.398   -20.344
32.2098     71.572   -20.084
32.6783     71.970   -20.089
33.1536     72.322   -20.745
33.6359     72.608   -21.893
34.1251     72.849   -23.077
34.6215     73.048   -23.927
35.1250     73.349   -24.480
35.6359     73.653   -25.034
36.1543     73.923   -25.912
36.6802     74.243   -27.273
37.2137     74.485   -28.994
37.7550     74.691   -30.581
38.3041     74.780   -31.429
38.8613     74.944   -31.789
39.4265     75.307   -32.433
40.0000     75.422   -33.735
40.5818     75.699   -35.056
41.1721     75.699   -35.558
41.7710     76.007   -35.664
42.3785     76.178   -36.285
42.9949     76.497   -37.150
43.6203     76.636   -37.653
44.2548     76.901   -38.287
44.8985     77.258   -39.762
45.5515     77.499   -41.248
46.2141     77.579   -42.148
46.8863     77.754   -43.160
47.5683     78.088   -44.509
48.2602     78.303   -45.367
48.9621     78.584   -46.199
49.6743     78.699   -47.511
50.3968     78.858   -48.051
51.1299     79.151   -48.104
51.8736     79.548   -49.583
52.6281     79.750   -51.279
53.3936     79.837   -51.373
54.1702     80.267   -52.109
54.9581     80.582   -54.408
55.7575     80.602   -55.539
56.5685     80.826   -55.925
57.3914     81.056   -57.266
58.2261     81.299   -58.579
59.0730     81.499   -59.629
59.9323     81.599   -60.620
60.8040     81.803   -61.330
61.6884     82.074   -62.560
62.5857     82.299   -63.546
63.4960     82.597   -64.559
64.4196     82.799   -66.697
65.3566     82.899   -67.729
66.3073     83.222   -68.349
67.2717     83.499   -70.411
68.2502     83.599   -71.952
69.2429     83.796   -72.545
70.2501     84.099   -73.608
71.2719     84.199   -75.534
72.3086     84.399   -76.362
73.3603     84.743   -77.101
74.4274     84.975   -78.809
75.5099     85.199   -80.642
76.6083     85.399   -82.081
77.7226     85.688   -83.356
78.8531     85.808   -85.684
80.0000     85.854   -87.081
81.1636     86.101   -88.048
82.3442     86.214   -89.927
83.5419     86.312   -91.744
84.7570     86.446   -92.715
85.9899     86.714   -93.922
87.2406     86.918   -95.611
88.5096     87.130   -97.080
89.7970     87.397   -98.825
91.1031     87.649  -100.954
92.4282     87.778  -102.922
93.7726     87.899  -104.815
95.1366     88.216  -107.222
96.5204     88.259  -109.548
97.9243     88.399  -112.047
99.3486     88.299  -114.381
100.794     88.432  -115.960
102.260     88.466  -117.162
103.747     88.579  -118.797
105.256     88.728  -120.544
106.787     88.949  -122.694
108.340     88.966  -124.699
109.916     89.032  -126.829
111.515     89.228  -128.942
113.137     89.299  -131.005
114.783     89.299  -133.194
116.452     89.256  -135.382
118.146     89.328  -137.307
119.865     89.501  -139.082
121.608     89.485  -141.364
123.377     89.499  -143.403
125.171     89.399  -145.441
126.992     89.499  -147.476
128.839     89.486  -149.510
130.713     89.328  -151.539
132.615     89.486  -153.402
134.543     89.399  -155.728
136.500     89.370  -158.074
138.486     89.399  -160.230
140.500     89.282  -162.638
142.544     89.012  -164.628
144.617     88.879  -166.060
146.721     88.799  -167.383
148.855     88.662  -169.000
151.020     88.516  -170.413
153.217     88.432  -171.892
155.445     88.366  -173.580
157.706     88.299  -175.099
160.000     88.143  -176.766
162.327     87.999  -178.381
164.688     87.866  -179.658
167.084     87.606   179.601
169.514     87.577   179.206
171.980     87.412   178.499
174.481     87.395   177.459
177.019     87.207   176.127
179.594     87.004   175.312
182.206     86.937   174.691
184.856     86.785   173.813
187.545     86.727   172.916
190.273     86.637   172.273
193.041     86.572   171.861
195.849     86.399   170.940
198.697     86.283   170.332
201.587     86.152   170.055
204.520     86.036   169.637
207.494     85.954   169.136
210.512     85.869   168.442
213.574     85.765   167.750
216.681     85.689   167.148
219.833     85.616   166.659
223.030     85.503   166.225
226.274     85.350   165.878
229.565     85.267   165.428
232.905     85.169   164.858
236.292     85.043   164.302
239.729     84.929   163.911
243.216     84.880   163.515
246.754     84.759   163.232
250.343     84.619   163.116
253.984     84.516   163.001
257.678     84.423   162.875
261.426     84.329   162.778
265.229     84.327   162.701
269.087     84.303   162.599
273.001     84.269   162.475
276.972     84.199   162.242
281.000     84.200   161.864
285.088     84.199   161.345
289.234     84.299   160.732
293.441     84.299   160.028
297.709     84.281   159.244
302.040     84.199   158.407
306.433     84.116   157.513
310.890     84.022   156.591
315.412     83.907   155.712
320.000     83.799   154.910
324.655     83.782   154.214
329.377     83.630   153.649
334.168     83.449   153.202
339.028     83.261   152.929
343.959     83.099   152.822
348.962     83.099   152.854
354.038     82.992   152.984
359.188     82.892   153.168
364.412     82.799   153.344
369.713     82.728   153.442
375.090     82.799   153.408
380.546     82.799   153.203
386.081     82.799   152.815
391.697     82.768   152.239
397.394     82.680   151.503
403.175     82.666   150.719
409.039     82.534   149.916
414.989     82.380   149.192
421.025     82.187   148.676
427.149     81.912   148.455
433.362     81.640   148.604
439.665     81.377   149.197
446.060     81.070   150.203
452.548     80.921   151.531
459.131     80.799   153.058
465.809     80.704   154.584
472.584     80.766   155.874
479.458     80.762   156.796
486.432     80.883   157.331
493.507     80.844   157.500
500.686     80.899   157.412
507.968     80.854   157.237
515.357     80.699   157.157
522.853     80.661   157.335
530.458     80.451   157.889
538.174     80.323   158.821
546.002     80.199   160.014
553.943     80.272   161.288
562.001     80.335   162.383
570.175     80.560   163.060
578.469     80.708   163.180
586.883     80.964   162.741
595.419     81.073   161.869
604.080     81.245   160.711
612.866     81.357   159.439
621.780     81.327   158.201
630.824     81.399   157.080
640.000     81.359   156.078
649.309     81.447   155.086
658.753     81.561   153.920
668.335     81.706   152.385
678.056     81.741   150.438
687.919     81.845   148.033
697.925     81.899   145.250
708.077     81.899   142.267
718.376     81.899   139.162
728.825     81.785   136.012
739.426     81.540   132.817
750.181     81.392   129.495
761.093     81.172   125.926
772.163     80.869   122.092
783.394     80.602   117.967
794.789     80.018   113.677
806.349     79.234   109.736
818.078     78.247   106.636
829.977     77.068   105.014
842.050     75.781   105.502
854.298     74.520   108.335
866.724     73.552   113.184
879.330     72.739   119.566
892.120     72.233   127.045
905.097     72.168   135.330
918.262     72.410   142.943
931.618     73.077   148.422
945.169     73.707   151.295
958.917     74.236   152.097
972.864     74.699   151.842
987.015     74.943   151.279
1001.37     75.271   150.500
1015.94     75.486   149.108
1030.71     75.731   146.901
1045.71     75.728   144.258
1060.92     75.697   142.049
1076.35     75.599   140.767
1092.00     75.699   139.563
1107.89     75.983   136.844
1124.00     76.290   131.912
1140.35     76.257   125.597
1156.94     75.914   119.395
1173.77     75.408   114.546
1190.84     74.997   110.856
1208.16     74.735   107.047
1225.73     74.495   102.247
1243.56     74.207    96.733
1261.65     73.935    90.963
1280.00     73.677    84.650
1298.62     73.356    77.511
1317.51     72.897    70.075
1336.67     72.408    63.116
1356.11     72.076    55.990
1375.84     71.817    46.885
1395.85     71.297    35.780
1416.15     70.331    25.779
1436.75     69.231    20.440
1457.65     68.628    18.275
1478.85     68.916    13.887
1500.36     69.414     4.875
1522.19     69.764    -7.222
1544.33     70.014   -20.840
1566.79     70.273   -35.905
1589.58     70.447   -52.664
1612.70     70.378   -70.371
1636.16     70.101   -87.933
1659.95     69.634  -104.576
1684.10     69.017  -120.250
1708.60     68.275  -134.439
1733.45     67.562  -145.206
1758.66     67.429  -152.624
1784.24     68.166  -161.245
1810.19     69.020  -174.548
1836.52     69.299   169.407
1863.24     69.178   154.592
1890.34     69.015   141.596
1917.83     68.924   128.033
1945.73     68.547   114.621
1974.03     68.153   103.887
2002.74     68.140    93.325
2031.87     68.022    81.324
2061.43     67.930    71.025
2091.41     68.321    58.549
2121.83     68.219    40.107
2152.69     66.922    23.769
2184.01     65.383    17.116
2215.77     65.140    13.869
2248.00     65.547     4.765
2280.70     65.500    -6.961
2313.87     65.672   -15.887
2347.53     66.725   -28.958
2381.68     67.164   -50.090
2416.32     66.294   -69.150
2451.46     65.536   -79.874
2487.12     65.753   -92.785
2523.30     65.435  -109.301
2560.00     65.173  -120.240
2597.24     66.095  -134.594
2635.01     66.333  -156.845
2673.34     65.351  -175.473
2712.23     64.727   171.435
2751.68     64.156   155.154
2791.70     63.081   146.001
2832.31     63.599   138.450
2873.50     63.999   123.619
2915.30     64.169   111.040
2957.70     65.152    97.183
3000.72     65.753    75.587
3044.37     65.524    56.865
3088.65     65.563    37.496
3133.58     64.772    20.346
3179.16     64.889     8.813
3225.40     65.751    -8.728
3272.31     66.189   -31.461
3319.91     66.141   -54.282
3368.20     65.552   -76.746
3417.19     64.862   -94.650
3466.89     64.729  -110.140
3517.32     65.487  -127.668
3568.48     65.890  -152.559
3620.39     65.261  -179.109
3673.05     63.953   162.059
3726.47     63.276   148.542
3780.67     63.885   133.884
3835.67     64.429   108.875
3891.46     63.555    84.409
3948.06     62.516    66.888
4005.49     62.165    55.121
4063.75     63.667    39.071
4122.86     64.199     8.482
4182.82     63.429   -16.654
4243.66     63.160   -39.458
4305.39     62.846   -61.132
4368.01     62.899   -83.807
4431.55     62.868  -109.979
4496.01     62.244  -137.725
4561.40     61.111  -159.582
4627.75     61.210  -175.024
4695.06     62.041   159.327
4763.35     61.964   130.663
4832.64     61.368   104.077
4902.93     61.440    82.571
4974.24     61.773    54.898
5046.60     61.596    24.519
5120.00     60.973    -2.657
5194.47     60.497   -29.021
5270.03     60.259   -54.238
5346.68     59.620   -84.301
5424.45     59.013  -109.800
5503.35     58.655  -131.686
5583.40     59.021  -158.971
5664.61     58.716   173.485
5747.01     58.794   146.877
5830.60     59.359   116.709
5915.41     59.289    83.215
6001.45     58.685    50.161
6088.74     58.292    19.978
6177.30     58.099   -10.201
6267.15     57.881   -43.135
6358.31     57.754   -72.024
6450.80     58.227  -104.471
6544.62     57.678  -139.023
6639.82     57.811  -169.933
6736.40     58.232   153.388
6834.38     58.173   117.154
6933.79     58.288    78.940
7034.64     57.623    38.537
7136.96     56.648     4.352
7240.77     56.798   -27.061
7346.09     56.648   -64.742
7452.94     57.312  -102.307
7561.35     57.482  -147.222
7671.33     56.630   169.435
7782.91     56.175   127.021
7896.12     54.743    81.171
8010.97     53.536    48.228
8127.49     53.007    10.546
8245.71     53.081   -19.639
8365.65     53.892   -64.682
8487.33     53.475  -108.259
8610.78     53.744  -150.957
8736.03     53.121   164.273
8863.09     52.852   124.628
8992.01     53.102    80.337
9122.80     53.075    34.704
9255.50     54.101   -15.494
9390.12     53.089   -71.116
9526.70     52.280  -122.939
9665.27     50.078  -170.778
9805.86     49.785   147.403
9948.49     49.172   100.465
10093.2     50.097    52.095
10240.0     49.014     0.595
10388.9     48.925   -52.583
10540.1     47.590  -104.763
10693.4     47.200  -156.572
10848.9     46.581   149.066
11006.7     46.267    94.108
11166.8     44.322    42.389
11329.2     44.031    -0.017
11494.0     45.154   -42.731
11661.2     45.820  -111.056
11830.8     45.809  -172.363
12002.9     44.447   123.970
12177.5     42.764    70.048
12354.6     41.448    33.679
12534.3     41.868   -16.353
12716.6     44.515   -75.072
12901.6     44.967  -136.681
13089.2     46.146   152.738
13279.6     47.160    79.241
13472.8     46.432     3.151
13668.8     45.368   -66.168
13867.6     45.111  -128.215
14069.3     46.223   162.336
14273.9     46.602    85.586
14481.5     46.445     7.527
14692.2     45.536   -63.733
14905.9     45.032  -136.993
15122.7     45.167   147.098
15342.7     45.443    67.861
15565.8     45.399   -15.214
15792.2     45.596  -101.807
16021.9     45.511   169.669
16255.0     44.698    78.233
16491.4     43.537    -5.513
16731.3     43.223   -86.572
16974.7     43.900  -178.634
17221.6     43.431    82.064
17472.1     41.534   -14.756
17726.2     40.016  -115.783
17984.0     37.229   158.677
18245.6     34.597    82.558
18511.0     31.766   -62.229
18780.2     27.937   -21.196
19053.4     27.977  -149.639
19330.5     27.964  -161.340
19611.7     29.127   116.278
19897.0     31.689    -1.173
20186.4     31.382   -76.913
20480.0     31.076  -152.652
20777.9     30.769   131.617
21080.1     30.463    55.878
21386.7     30.156   -19.861
21697.8     29.850   -95.589
22013.4     29.543  -171.322
22333.6     29.237   112.945
22658.4     28.931    37.200
22988.0     28.624   -38.528
23322.4     28.318  -114.255
23661.6     28.011   170.004
24005.8     27.705    94.277
24355.0     27.398    18.549
24709.2     27.092   -57.195
25068.6     26.785  -132.929
25433.2     26.479   151.330
25803.2     26.173    75.609
26178.5     25.866    -0.128
26559.3     25.560   -75.857
26945.6     25.253  -151.594
27337.5     24.947   132.666
27735.2     24.640    56.945
28138.6     24.334   -18.792
28547.9     24.027   -94.523
28963.1     23.721  -170.264
29384.4     23.415   114.006
29811.8     23.108    38.271
30245.4     22.802   -37.467
30685.3     22.495  -113.206
31131.7     22.189   171.072
31584.5     21.882    95.335
32043.9     21.576    19.601
32510.0     21.269   -56.132
32982.8     20.963  -131.877
33462.6     20.657   152.398
33949.3     20.350    76.660
34443.1     20.044     0.925
34944.1     19.737   -74.807
35452.4     19.431  -150.537
35968.0     19.124   133.721
36491.2     18.818    57.991
37022.0     18.511   -17.739
37560.5     18.205   -93.473
38106.8     17.899  -169.211
38661.1     17.592   115.058
39223.4     17.286    39.319
39793.9     16.979   -36.417
