Freq[Hz]     dBSPL  Phase[Deg]
5.00000     44.645    49.678
5.07273     44.858    49.503
5.14651     45.071    49.328
5.22137     45.284    49.152
5.29732     45.503    48.971
5.37437     45.726    48.787
5.45254     45.949    48.603
5.53185     46.163    48.416
5.61231     46.364    48.223
5.69394     46.564    48.031
5.77676     46.768    47.835
5.86079     46.977    47.635
5.94604     47.186    47.434
6.03252     47.399    47.229
6.12027     47.617    47.020
6.20929     47.835    46.810
6.29961     48.057    46.596
6.39124     48.284    46.378
6.48420     48.511    46.160
6.57851     48.713    45.934
6.67420     48.910    45.707
6.77128     49.117    45.479
6.86977     49.361    45.243
6.96969     49.605    45.008
7.07107     49.826    44.767
7.17392     50.038    44.523
7.27827     50.251    44.276
7.38413     50.470    44.024
7.49154     50.688    43.772
7.60050     50.914    43.511
7.71105     51.140    43.250
7.82321     51.341    42.984
7.93701     51.528    42.714
8.05245     51.740    42.441
8.16958     51.980    42.163
8.28841     52.207    41.882
8.40896     52.406    41.595
8.53128     52.607    41.306
8.65537     52.812    41.011
8.78126     53.018    40.714
8.90899     53.229    40.410
9.03857     53.442    40.104
9.17004     53.658    39.791
9.30342     53.877    39.475
9.43874     54.099    39.154
9.57603     54.325    38.829
9.71532     54.553    38.499
9.85663     54.785    38.163
10.0000     55.019    37.825
10.1455     55.200    37.479
10.2930     55.400    37.129
10.4427     55.646    36.774
10.5946     55.856    36.414
10.7487     56.046    36.050
10.9051     56.303    35.678
11.0637     56.536    35.302
11.2246     56.735    34.921
11.3879     56.937    34.533
11.5535     57.141    34.140
11.7216     57.348    33.742
11.8921     57.559    33.337
12.0650     57.772    32.927
12.2405     57.988    32.512
12.4186     58.208    32.089
12.5992     58.430    31.660
12.7825     58.656    31.227
12.9684     58.884    30.785
13.1570     59.117    30.337
13.3484     59.313    29.884
13.5426     59.491    29.423
13.7395     59.732    28.957
13.9394     59.978    28.482
14.1421     60.170    28.001
14.3478     60.380    27.513
14.5565     60.613    27.019
14.7683     60.795    26.517
14.9831     61.059    26.007
15.2010     61.246    25.489
15.4221     61.498    24.964
15.6464     61.714    24.431
15.8740     61.902    23.890
16.1049     62.092    23.341
16.3392     62.321    22.785
16.5768     62.581    22.221
16.8179     62.779    21.648
17.0626     62.981    21.067
17.3107     63.185    20.477
17.5625     63.392    19.879
17.8180     63.602    19.272
18.0771     63.815    18.657
18.3401     64.031    18.032
18.6068     64.251    17.398
18.8775     64.473    16.755
19.1521     64.698    16.102
19.4306     64.927    15.440
19.7133     65.158    14.769
20.0000     65.393    14.088
20.2909     65.632    13.340
20.5860     65.890    11.934
20.8855     66.153    10.611
21.1893     66.351     9.692
21.4975     66.428     9.206
21.8102     66.523     9.081
22.1274     66.752     9.030
22.4492     67.089     8.797
22.7758     67.430     8.133
23.1071     67.785     6.945
23.4432     67.976     5.507
23.7841     68.099     4.207
24.1301     68.151     3.460
24.4811     68.384     3.207
24.8372     68.569     3.131
25.1984     68.937     2.644
25.5649     69.251     1.328
25.9368     69.549    -0.727
26.3141     69.725    -3.059
26.6968     69.799    -5.088
27.0851     69.799    -6.374
27.4791     69.891    -6.962
27.8788     70.151    -7.245
28.2843     70.327    -7.673
28.6957     70.656    -8.388
29.1131     70.890    -9.257
29.5365     71.228   -10.194
29.9661     71.486   -11.246
30.4020     71.760   -12.479
30.8442     71.937   -13.683
31.2929     72.144   -14.489
31.7480     72.229   -14.657
32.2098     72.467   -14.377
32.6783     72.770   -14.362
33.1536     73.175   -14.998
33.6359     73.423   -16.126
34.1251     73.649   -17.289
34.6215     73.848   -18.120
35.1250     74.149   -18.652
35.6359     74.453   -19.186
36.1543     74.723   -20.042
36.6802     75.043   -21.382
37.2137     75.285   -23.081
37.7550     75.491   -24.646
38.3041     75.580   -25.471
38.8613     75.744   -25.808
39.4265     76.107   -26.428
40.0000     76.199   -27.706
40.5818     76.481   -29.000
41.1721     76.499   -29.477
41.7710     76.714   -29.556
42.3785     76.978   -30.150
42.9949     77.197   -30.986
43.6203     77.436   -31.459
44.2548     77.701   -32.063
44.8985     77.958   -33.506
45.5515     78.238   -34.959
46.2141     78.379   -35.826
46.8863     78.554   -36.804
47.5683     78.799   -38.117
48.2602     79.003   -38.938
48.9621     79.284   -39.733
49.6743     79.399   -41.006
50.3968     79.558   -41.505
51.1299     79.851   -41.517
51.8736     80.248   -42.954
52.6281     80.450   -44.606
53.3936     80.637   -44.654
54.1702     81.067   -45.343
54.9581     81.282   -47.595
55.7575     81.328   -48.676
56.5685     81.579   -49.012
57.3914     81.756   -50.301
58.2261     82.099   -51.561
59.0730     82.199   -52.556
59.9323     82.333   -53.490
60.8040     82.603   -54.143
61.6884     82.774   -55.314
62.5857     83.009   -56.239
63.4960     83.359   -57.189
64.4196     83.590   -59.264
65.3566     83.646   -60.229
66.3073     84.016   -60.783
67.2717     84.269   -62.775
68.2502     84.362   -64.246
69.2429     84.588   -64.767
70.2501     84.816   -65.755
71.2719     84.961   -67.605
72.3086     85.144   -68.356
73.3603     85.475   -69.014
74.4274     85.775   -70.641
75.5099     85.980   -72.390
76.6083     86.118   -73.744
77.7226     86.412   -74.932
78.8531     86.608   -77.170
80.0000     86.654   -78.475
81.1636     86.901   -79.348
82.3442     87.014   -81.131
83.5419     87.112   -82.850
84.7570     87.202   -83.719
85.9899     87.514   -84.823
87.2406     87.695   -86.407
88.5096     87.930   -87.767
89.7970     88.197   -89.400
91.1031     88.449   -91.415
92.4282     88.578   -93.267
93.7726     88.699   -95.040
95.1366     89.016   -97.324
96.5204     89.059   -99.523
97.9243     89.199  -101.892
99.3486     89.099  -104.092
100.794     89.232  -105.534
102.260     89.266  -106.594
103.747     89.379  -108.083
105.256     89.628  -109.681
106.787     89.749  -111.674
108.340     89.766  -113.520
109.916     89.847  -115.483
111.515     90.028  -117.425
113.137     90.099  -119.310
114.783     90.199  -121.315
116.452     90.156  -123.311
118.146     90.128  -125.037
119.865     90.332  -126.605
121.608     90.385  -128.672
123.377     90.299  -130.486
125.171     90.299  -132.290
126.992     90.299  -134.080
128.839     90.386  -135.860
130.713     90.228  -137.623
132.615     90.299  -139.208
134.543     90.282  -141.237
136.500     90.270  -143.273
138.486     90.299  -145.140
140.500     90.199  -147.222
142.544     89.962  -148.848
144.617     89.799  -149.942
146.721     89.749  -150.922
148.855     89.662  -152.161
151.020     89.516  -153.196
153.217     89.499  -154.298
155.445     89.399  -155.611
157.706     89.399  -156.762
160.000     89.329  -158.040
162.327     89.199  -159.278
164.688     89.066  -160.222
167.084     88.878  -160.620
169.514     88.877  -160.668
171.980     88.798  -161.053
174.481     88.795  -161.817
177.019     88.750  -162.898
179.594     88.604  -163.470
182.206     88.562  -163.861
184.856     88.485  -164.539
187.545     88.499  -165.274
190.273     88.450  -165.772
193.041     88.472  -166.065
195.849     88.399  -166.891
198.697     88.321  -167.423
201.587     88.252  -167.648
204.520     88.236  -168.036
207.494     88.242  -168.528
210.512     88.147  -169.232
213.574     88.152  -169.955
216.681     88.114  -170.603
219.833     88.116  -171.159
223.030     88.059  -171.682
226.274     87.972  -172.134
229.565     87.923  -172.705
232.905     87.880  -173.410
236.292     87.799  -174.112
239.729     87.709  -174.666
243.216     87.724  -175.233
246.754     87.629  -175.689
250.343     87.539  -175.985
253.984     87.436  -176.274
257.678     87.373  -176.564
261.426     87.329  -176.818
265.229     87.327  -177.032
269.087     87.303  -177.251
273.001     87.299  -177.471
276.972     87.290  -177.779
281.000     87.200  -178.215
285.088     87.199  -178.774
289.234     87.299  -179.412
293.441     87.299   179.873
297.709     87.299   179.089
302.040     87.299   178.260
306.433     87.207   177.377
310.890     87.122   176.470
315.412     87.016   175.606
320.000     86.922   174.818
324.655     86.924   174.134
329.377     86.753   173.580
334.168     86.578   173.146
339.028     86.399   172.889
343.959     86.235   172.809
348.962     86.207   172.885
354.038     86.092   173.088
359.188     85.963   173.385
364.412     85.852   173.731
369.713     85.770   174.057
375.090     85.799   174.313
380.546     85.799   174.469
386.081     85.799   174.494
391.697     85.730   174.388
397.394     85.668   174.162
403.175     85.679   173.874
409.039     85.575   173.560
414.989     85.487   173.283
421.025     85.346   173.122
427.149     85.155   173.133
433.362     84.958   173.364
439.665     84.760   173.874
446.060     84.511   174.650
452.548     84.360   175.664
459.131     84.227   176.888
465.809     84.110   178.254
472.584     84.032   179.641
479.458     83.967  -179.020
486.432     83.999  -177.734
493.507     83.899  -176.520
500.686     83.929  -175.364
507.968     83.999  -174.265
515.357     83.944  -173.189
522.853     84.066  -172.094
530.458     84.075  -170.992
538.174     84.137  -169.952
546.002     84.175  -169.030
553.943     84.367  -168.272
562.001     84.476  -167.740
570.175     84.695  -167.471
578.469     84.821  -167.467
586.883     85.034  -167.692
595.419     85.129  -168.085
604.080     85.311  -168.598
612.866     85.482  -169.192
621.780     85.559  -169.857
630.824     85.747  -170.622
640.000     85.839  -171.534
649.309     86.039  -172.666
658.753     86.241  -174.118
668.335     86.432  -175.980
678.056     86.484  -178.187
687.919     86.599   179.273
697.925     86.677   176.496
708.077     86.699   173.652
718.376     86.663   170.806
728.825     86.551   168.034
739.426     86.320   165.343
750.181     86.199   162.662
761.093     86.036   159.860
772.163     85.826   156.868
783.394     85.696   153.599
794.789     85.308   150.096
806.349     84.773   146.724
818.078     84.090   143.812
829.977     83.280   141.769
842.050     82.396   140.916
854.298     81.523   141.247
866.724     80.831   142.431
879.330     80.085   144.120
892.120     79.348   146.489
905.097     78.649   150.371
918.262     77.949   155.934
931.618     77.656   162.743
945.169     77.667   169.360
958.917     77.975   174.153
972.864     78.428   176.660
987.015     78.658   177.586
1001.37     78.799   177.962
1015.94     78.799   178.426
1030.71     78.834   179.035
1045.71     78.799   179.533
1060.92     78.866   179.734
1076.35     78.794   179.711
1092.00     78.699   179.646
1107.89     78.601   179.649
1124.00     78.699   179.773
1140.35     78.712   179.919
1156.94     78.882   179.602
1173.77     79.140   178.174
1190.84     79.356   175.518
1208.16     79.399   172.431
1225.73     79.399   169.996
1243.56     79.493   168.298
1261.65     79.941   165.770
1280.00     80.501   160.806
1298.62     80.897   153.544
1317.51     80.999   145.334
1336.67     80.946   137.414
1356.11     80.899   129.871
1375.84     80.857   121.732
1395.85     80.735   112.623
1416.15     80.433   103.772
1436.75     80.024    96.951
1457.65     79.633    91.873
1478.85     79.640    86.841
1500.36     79.872    80.162
1522.19     80.072    71.401
1544.33     80.161    61.462
1566.79     80.101    51.325
1589.58     80.199    40.837
1612.70     80.299    29.024
1636.16     80.261    15.580
1659.95     79.877     2.172
1684.10     79.287    -8.882
1708.60     79.005   -17.752
1733.45     79.237   -27.554
1758.66     79.599   -40.152
1784.24     79.823   -54.131
1810.19     79.899   -68.130
1836.52     79.899   -82.295
1863.24     79.859   -96.355
1890.34     79.735  -109.945
1917.83     79.554  -122.925
1945.73     79.418  -135.059
1974.03     79.470  -147.106
2002.74     79.593  -160.213
2031.87     79.499  -173.415
2061.43     79.399   174.346
2091.41     79.382   161.492
2121.83     79.082   148.289
2152.69     78.681   137.007
2184.01     78.599   126.209
2215.77     78.528   114.151
2248.00     78.425   102.159
2280.70     78.399    90.335
2313.87     78.329    77.944
2347.53     78.085    66.178
2381.68     77.912    54.932
2416.32     77.799    42.966
2451.46     77.799    29.906
2487.12     77.749    15.360
2523.30     77.441     1.988
2560.00     77.278   -10.103
2597.24     77.132   -23.064
2635.01     76.929   -35.595
2673.34     76.899   -48.608
2712.23     76.830   -63.511
2751.68     76.479   -76.686
2791.70     76.567   -88.509
2832.31     76.632  -102.300
2873.50     76.734  -114.985
2915.30     77.021  -129.460
2957.70     77.099  -144.741
3000.72     77.099  -159.780
3044.37     77.122  -174.141
3088.65     77.130   170.797
3133.58     77.295   156.432
3179.16     77.495   140.248
3225.40     77.505   124.014
3272.31     77.525   107.571
3319.91     77.660    91.747
3368.20     77.851    74.868
3417.19     77.999    56.660
3466.89     78.107    38.383
3517.32     78.146    19.631
3568.48     78.107     1.715
3620.39     78.199   -17.333
3673.05     78.199   -37.288
3726.47     78.080   -57.231
3780.67     77.904   -76.985
3835.67     77.799   -96.168
3891.46     77.685  -116.084
3948.06     77.462  -136.420
4005.49     77.196  -156.022
4063.75     77.099  -175.333
4122.86     76.972   163.713
4182.82     76.732   143.166
4243.66     76.536   123.160
4305.39     76.414   102.998
4368.01     76.227    82.237
4431.55     76.199    60.945
4496.01     76.123    38.562
4561.40     75.922    16.211
4627.75     75.837    -6.026
4695.06     75.778   -30.107
4763.35     75.533   -54.444
4832.64     75.134   -78.559
4902.93     74.758  -102.146
4974.24     74.448  -126.050
5046.60     74.072  -150.217
5120.00     73.667  -174.245
5194.47     73.266   161.081
5270.03     72.893   136.777
5346.68     72.494   111.816
5424.45     72.009    86.800
5503.35     71.536    61.983
5583.40     71.037    37.454
5664.61     70.725    12.977
5747.01     70.333   -12.297
5830.60     69.901   -37.327
5915.41     69.367   -62.441
6001.45     69.130   -85.801
6088.74     69.124  -111.145
6177.30     69.134  -136.804
6267.15     69.299  -165.150
6358.31     69.132   165.826
6450.80     68.910   137.438
6544.62     68.799   109.439
6639.82     68.717    80.787
6736.40     68.837    51.497
6834.38     68.864    19.688
6933.79     68.625   -12.808
7034.64     68.093   -44.491
7136.96     67.495   -72.486
7240.77     67.811   -99.901
7346.09     68.011  -132.278
7452.94     68.310  -163.474
7561.35     68.590   162.488
7671.33     68.845   127.579
7782.91     68.892    90.790
7896.12     68.739    54.856
8010.97     68.415    19.329
8127.49     68.317   -14.779
8245.71     68.474   -50.520
8365.65     68.660   -87.017
8487.33     68.729  -124.380
8610.78     68.854  -161.737
8736.03     69.043   160.506
8863.09     69.315   121.978
8992.01     69.707    83.136
9122.80     70.196    42.534
9255.50     70.607    -0.367
9390.12     70.767   -43.058
9526.70     71.032   -86.185
9665.27     71.353  -130.033
9805.86     71.639  -175.239
9948.49     71.875   138.792
10093.2     72.037    92.588
10240.0     72.230    45.006
10388.9     72.373    -3.530
10540.1     72.533   -52.516
10693.4     72.599  -102.912
10848.9     72.538  -154.217
11006.7     72.395   154.376
11166.8     72.284   102.610
11329.2     72.132    50.344
11494.0     71.996    -2.580
11661.2     71.847   -56.166
11830.8     71.660  -109.315
12002.9     71.674  -162.526
12177.5     71.915   142.118
12354.6     72.039    84.606
12534.3     71.995    25.712
12716.6     71.817   -33.340
12901.6     71.699   -92.579
13089.2     71.699  -153.709
13279.6     71.593   143.315
13472.8     71.375    79.963
13668.8     71.214    15.276
13867.6     70.943   -51.293
14069.3     70.456  -118.333
14273.9     69.893   174.829
14481.5     69.241   107.658
14692.2     68.535    40.992
14905.9     67.890   -24.575
15122.7     67.634   -89.737
15342.7     67.875  -157.612
15565.8     68.159   130.084
15792.2     68.199    55.638
16021.9     68.094   -19.766
16255.0     67.931   -96.121
16491.4     67.939  -173.814
16731.3     68.178   105.669
16974.7     68.468    20.103
17221.6     68.219   -71.407
17472.1     66.735  -166.091
17726.2     63.692   107.679
17984.0     60.901    31.215
18245.6     59.140   -45.031
18511.0     57.547  -125.018
18780.2     55.336   157.189
19053.4     53.397    88.205
19330.5     54.198    17.917
19611.7     55.947   -69.228
19897.0     56.491  -153.048
20186.4     56.153   140.032
20480.0     55.815    73.112
20777.9     55.478     6.199
21080.1     55.140   -60.722
21386.7     54.803  -127.642
21697.8     54.465   165.447
22013.4     54.128    98.531
22333.6     53.790    31.615
22658.4     53.453   -35.311
22988.0     53.115  -102.222
23322.4     52.778  -169.131
23661.6     52.440   123.946
24005.8     52.103    57.037
24355.0     51.765    -9.874
24709.2     51.427   -76.799
25068.6     51.090  -143.716
25433.2     50.752   149.361
25803.2     50.415    82.457
26178.5     50.077    15.538
26559.3     49.740   -51.373
26945.6     49.402  -118.292
27337.5     49.065   174.787
27735.2     48.727   107.882
28138.6     48.390    40.963
28547.9     48.052   -25.951
28963.1     47.715   -92.873
29384.4     47.377  -159.787
29811.8     47.039   133.297
30245.4     46.702    66.377
30685.3     46.364    -0.543
31131.7     46.027   -67.449
31584.5     45.689  -134.368
32043.9     45.352   158.715
32510.0     45.014    91.801
32982.8     44.677    24.875
33462.6     44.339   -42.034
33949.3     44.002  -108.954
34443.1     43.664  -175.870
34944.1     43.327   117.215
35452.4     42.989    50.303
35968.0     42.651   -16.622
36491.2     42.314   -83.533
37022.0     41.976  -150.447
37560.5     41.639   142.638
38106.8     41.301    75.718
38661.1     40.964     8.804
39223.4     40.626   -58.117
39793.9     40.289  -125.035
