Freq[Hz]     dBSPL  Phase[Deg]
5.00000     43.966    35.165
5.07273     44.180    35.018
5.14651     44.395    34.872
5.22137     44.610    34.727
5.29732     44.831    34.576
5.37437     45.056    34.423
5.45254     45.281    34.270
5.53185     45.497    34.114
5.61231     45.699    33.953
5.69394     45.902    33.793
5.77676     46.107    33.630
5.86079     46.318    33.463
5.94604     46.529    33.295
6.03252     46.743    33.126
6.12027     46.963    32.951
6.20929     47.183    32.777
6.29961     47.408    32.598
6.39124     47.636    32.416
6.48420     47.865    32.235
6.57851     48.068    32.047
6.67420     48.267    31.858
6.77128     48.476    31.668
6.86977     48.722    31.472
6.96969     48.968    31.276
7.07107     49.191    31.075
7.17392     49.404    30.872
7.27827     49.620    30.667
7.38413     49.840    30.456
7.49154     50.061    30.246
7.60050     50.288    30.030
7.71105     50.516    29.812
7.82321     50.719    29.590
7.93701     50.908    29.366
8.05245     51.121    29.138
8.16958     51.364    28.906
8.28841     51.593    28.673
8.40896     51.794    28.434
8.53128     51.996    28.194
8.65537     52.203    27.948
8.78126     52.411    27.701
8.90899     52.624    27.447
9.03857     52.838    27.192
9.17004     53.056    26.932
9.30342     53.277    26.669
9.43874     53.501    26.401
9.57603     53.729    26.130
9.71532     53.959    25.856
9.85663     54.193    25.576
10.0000     54.429    25.295
10.1455     54.612    25.006
10.2930     54.813    24.715
10.4427     55.060    24.420
10.5946     55.273    24.119
10.7487     55.465    23.817
10.9051     55.723    23.506
11.0637     55.959    23.193
11.2246     56.159    22.877
11.3879     56.363    22.553
11.5535     56.569    22.226
11.7216     56.778    21.895
11.8921     56.991    21.557
12.0650     57.206    21.216
12.2405     57.423    20.870
12.4186     57.645    20.518
12.5992     57.869    20.161
12.7825     58.096    19.800
12.9684     58.327    19.432
13.1570     58.561    19.059
13.3484     58.759    18.681
13.5426     58.939    18.298
13.7395     59.182    17.910
13.9394     59.430    17.514
14.1421     59.624    17.113
14.3478     59.836    16.707
14.5565     60.071    16.296
14.7683     60.255    15.878
14.9831     60.520    15.453
15.2010     60.709    15.021
15.4221     60.962    14.584
15.6464     61.180    14.140
15.8740     61.370    13.689
16.1049     61.562    13.233
16.3392     61.793    12.769
16.5768     62.055    12.299
16.8179     62.255    11.822
17.0626     62.459    11.338
17.3107     62.665    10.847
17.5625     62.874    10.348
17.8180     63.086     9.843
18.0771     63.301     9.330
18.3401     63.518     8.809
18.6068     63.739     8.281
18.8775     63.964     7.745
19.1521     64.191     7.202
19.4306     64.421     6.651
19.7133     64.655     6.091
20.0000     64.891     5.524
20.2909     65.132     4.891
20.5860     65.390     3.604
20.8855     65.653     2.409
21.1893     65.851     1.618
21.4975     65.998     1.259
21.8102     66.123     1.259
22.1274     66.352     1.331
22.4492     66.689     1.220
22.7758     67.011     0.674
23.1071     67.285    -0.397
23.4432     67.476    -1.721
23.7841     67.599    -2.911
24.1301     67.651    -3.551
24.4811     67.884    -3.700
24.8372     68.151    -3.677
25.1984     68.537    -4.068
25.5649     68.851    -5.292
25.9368     69.066    -7.259
26.3141     69.225    -9.507
26.6968     69.299   -11.457
27.0851     69.395   -12.667
27.4791     69.391   -13.185
27.8788     69.651   -13.402
28.2843     69.827   -13.768
28.6957     70.156   -14.427
29.1131     70.390   -15.244
29.5365     70.728   -16.132
29.9661     70.903   -17.141
30.4020     71.260   -18.335
30.8442     71.414   -19.505
31.2929     71.544   -20.282
31.7480     71.698   -20.424
32.2098     71.872   -20.123
32.6783     72.247   -20.092
33.1536     72.575   -20.715
33.6359     72.823   -21.836
34.1251     73.049   -22.995
34.6215     73.248   -23.825
35.1250     73.549   -24.362
35.6359     73.853   -24.904
36.1543     74.123   -25.773
36.6802     74.427   -27.129
37.2137     74.646   -28.847
37.7550     74.791   -30.436
38.3041     74.880   -31.288
38.8613     75.044   -31.656
39.4265     75.407   -32.309
40.0000     75.499   -33.624
40.5818     75.699   -34.960
41.1721     75.799   -35.480
41.7710     76.007   -35.607
42.3785     76.178   -36.251
42.9949     76.497   -37.140
43.6203     76.636   -37.670
44.2548     76.901   -38.333
44.8985     77.158   -39.838
45.5515     77.499   -41.356
46.2141     77.579   -42.291
46.8863     77.754   -43.339
47.5683     77.999   -44.725
48.2602     78.203   -45.622
48.9621     78.484   -46.494
49.6743     78.599   -47.848
50.3968     78.758   -48.430
51.1299     78.989   -48.527
51.8736     79.348   -50.051
52.6281     79.550   -51.793
53.3936     79.737   -51.934
54.1702     80.167   -52.717
54.9581     80.382   -55.065
55.7575     80.428   -56.245
56.5685     80.626   -56.681
57.3914     80.856   -58.073
58.2261     81.099   -59.438
59.0730     81.268   -60.539
59.9323     81.399   -61.582
60.8040     81.603   -62.345
61.6884     81.829   -63.628
62.5857     82.099   -64.667
63.4960     82.397   -65.733
64.4196     82.590   -67.925
65.3566     82.646   -69.010
66.3073     83.016   -69.684
67.2717     83.199   -71.800
68.2502     83.362   -73.394
69.2429     83.496   -74.041
70.2501     83.799   -75.157
71.2719     83.899   -77.137
72.3086     84.099   -78.017
73.3603     84.375   -78.808
74.4274     84.675   -80.568
75.5099     84.899   -82.453
76.6083     85.018   -83.943
77.7226     85.388   -85.268
78.8531     85.508   -87.646
80.0000     85.554   -89.092
81.1636     85.801   -90.106
82.3442     85.914   -92.033
83.5419     85.999   -93.897
84.7570     86.102   -94.912
85.9899     86.414   -96.163
87.2406     86.595   -97.895
88.5096     86.799   -99.406
89.7970     86.997  -101.191
91.1031     87.249  -103.358
92.4282     87.439  -105.364
93.7726     87.499  -107.293
95.1366     87.816  -109.734
96.5204     87.859  -112.092
97.9243     87.999  -114.621
99.3486     87.899  -116.984
100.794     88.032  -118.589
102.260     88.066  -119.816
103.747     88.179  -121.473
105.256     88.328  -123.241
106.787     88.509  -125.409
108.340     88.566  -127.431
109.916     88.632  -129.574
111.515     88.728  -131.700
113.137     88.799  -133.773
114.783     88.899  -135.970
116.452     88.856  -138.164
118.146     88.928  -140.094
119.865     89.032  -141.872
121.608     89.085  -144.158
123.377     89.099  -146.199
125.171     88.999  -148.239
126.992     89.099  -150.277
128.839     89.086  -152.315
130.713     89.028  -154.350
132.615     89.099  -156.222
134.543     89.016  -158.561
136.500     89.070  -160.926
138.486     89.099  -163.104
140.500     88.932  -165.543
142.544     88.695  -167.577
144.617     88.579  -169.059
146.721     88.499  -170.442
148.855     88.378  -172.137
151.020     88.266  -173.642
153.217     88.199  -175.227
155.445     88.116  -177.036
157.706     88.099  -178.690
160.000     87.929   179.481
162.327     87.799   177.690
164.688     87.666   176.236
167.084     87.449   175.293
169.514     87.377   174.667
171.980     87.269   173.720
174.481     87.195   172.450
177.019     87.065   170.884
179.594     86.804   169.814
182.206     86.749   168.920
184.856     86.585   167.771
187.545     86.484   166.627
190.273     86.337   165.726
193.041     86.272   165.064
195.849     86.124   163.905
198.697     85.958   163.055
201.587     85.777   162.551
204.520     85.661   161.922
207.494     85.517   161.227
210.512     85.391   160.346
213.574     85.265   159.487
216.681     85.127   158.747
219.833     85.005   158.132
223.030     84.848   157.587
226.274     84.661   157.154
229.565     84.511   156.641
232.905     84.380   156.031
236.292     84.199   155.458
239.729     84.049   155.071
243.216     83.947   154.698
246.754     83.789   154.456
250.343     83.609   154.397
253.984     83.476   154.349
257.678     83.343   154.295
261.426     83.229   154.273
265.229     83.217   154.268
269.087     83.103   154.229
273.001     83.089   154.158
276.972     82.999   153.968
281.000     83.000   153.622
285.088     82.899   153.126
289.234     82.999   152.526
293.441     82.999   151.829
297.709     82.908   151.049
302.040     82.841   150.215
306.433     82.732   149.329
310.890     82.576   148.424
315.412     82.432   147.577
320.000     82.276   146.830
324.655     82.224   146.215
329.377     82.007   145.768
334.168     81.778   145.496
339.028     81.537   145.453
343.959     81.320   145.638
348.962     81.261   146.018
354.038     81.135   146.549
359.188     80.992   147.184
364.412     80.892   147.846
369.713     80.799   148.421
375.090     80.899   148.831
380.546     80.899   149.031
386.081     80.899   148.979
391.697     80.899   148.675
397.394     80.868   148.144
403.175     80.879   147.493
409.039     80.752   146.774
414.989     80.624   146.101
421.025     80.417   145.622
427.149     80.149   145.455
433.362     79.852   145.712
439.665     79.555   146.520
446.060     79.223   147.884
452.548     79.043   149.736
459.131     78.910   151.956
465.809     78.899   154.299
472.584     79.010   156.417
479.458     79.125   158.078
486.432     79.399   159.193
493.507     79.564   159.702
500.686     79.804   159.649
507.968     80.014   159.151
515.357     80.079   158.364
522.853     80.251   157.409
530.458     80.199   156.408
538.174     80.199   155.481
546.002     80.099   154.682
553.943     80.099   154.008
562.001     79.999   153.435
570.175     79.999   152.897
578.469     79.956   152.295
586.883     80.008   151.538
595.419     79.999   150.547
604.080     80.074   149.249
612.866     80.099   147.634
621.780     79.999   145.732
630.824     79.999   143.622
640.000     79.779   141.461
649.309     79.631   139.375
658.753     79.411   137.449
668.335     79.147   135.758
678.056     78.764   134.425
687.919     78.481   133.413
697.925     78.214   132.634
708.077     78.010   131.971
718.376     77.849   131.278
728.825     77.644   130.473
739.426     77.344   129.556
750.181     77.146   128.599
761.093     76.896   127.714
772.163     76.612   127.012
783.394     76.476   126.516
794.789     76.202   126.189
806.349     75.934   125.951
818.078     75.690   125.690
829.977     75.465   125.309
842.050     75.240   124.714
854.298     75.014   123.816
866.724     74.849   122.572
879.330     74.488   121.046
892.120     73.959   119.851
905.097     73.324   120.078
918.262     72.507   122.283
931.618     71.942   126.767
945.169     71.702   132.508
958.917     71.949   137.062
972.864     72.520   138.600
987.015     72.894   137.181
1001.37     73.092   133.982
1015.94     72.899   130.208
1030.71     72.612   126.378
1045.71     72.028   122.152
1060.92     71.206   117.318
1076.35     69.701   113.257
1092.00     67.393   114.625
1107.89     64.940   129.498
1124.00     65.192   153.040
1140.35     67.635   165.414
1156.94     69.760   164.967
1173.77     71.127   159.791
1190.84     72.035   153.895
1208.16     72.761   147.838
1225.73     73.362   141.025
1243.56     73.889   133.230
1261.65     74.353   124.582
1280.00     74.745   114.787
1298.62     74.977   103.384
1317.51     74.903    90.510
1336.67     74.386    77.632
1356.11     73.544    67.009
1375.84     72.768    59.533
1395.85     72.523    53.020
1416.15     72.754    44.150
1436.75     72.967    32.320
1457.65     72.677    18.416
1478.85     72.051     4.320
1500.36     71.096    -7.848
1522.19     70.154   -17.308
1544.33     69.594   -25.503
1566.79     69.397   -34.974
1589.58     69.248   -46.181
1612.70     69.039   -57.424
1636.16     68.988   -67.956
1659.95     69.136   -78.883
1684.10     69.296   -90.795
1708.60     69.463  -102.305
1733.45     69.949  -113.251
1758.66     70.798  -127.108
1784.24     71.340  -145.206
1810.19     71.045  -163.388
1836.52     70.228  -176.275
1863.24     69.978   175.932
1890.34     70.531   166.760
1917.83     71.152   153.838
1945.73     71.502   138.842
1974.03     71.485   123.543
2002.74     71.266   109.951
2031.87     71.199    97.350
2061.43     71.127    83.644
2091.41     70.836    69.304
2121.83     70.289    55.187
2152.69     69.510    42.951
2184.01     68.952    34.152
2215.77     68.986    24.379
2248.00     68.923    12.400
2280.70     68.905     1.857
2313.87     69.398   -11.240
2347.53     69.504   -29.689
2381.68     68.696   -46.930
2416.32     67.897   -58.009
2451.46     67.935   -69.962
2487.12     67.660   -85.148
2523.30     67.159   -96.660
2560.00     67.540  -107.517
2597.24     68.270  -125.409
2635.01     67.978  -146.928
2673.34     67.162  -162.868
2712.23     66.808  -177.765
2751.68     66.193   167.096
2791.70     65.820   155.830
2832.31     66.223   143.455
2873.50     66.470   126.984
2915.30     66.716   113.146
2957.70     67.712    92.968
3000.72     67.451    65.809
3044.37     66.092    43.927
3088.65     64.706    30.562
3133.58     64.399    19.580
3179.16     64.606     5.819
3225.40     64.993   -13.798
3272.31     64.524   -35.289
3319.91     63.753   -52.517
3368.20     63.323   -67.785
3417.19     62.955   -84.226
3466.89     62.965   -98.750
3517.32     62.895  -116.873
3568.48     62.493  -132.631
3620.39     62.577  -148.048
3673.05     62.799  -166.258
3726.47     62.906   175.079
3780.67     62.547   154.611
3835.67     62.243   138.689
3891.46     62.659   121.498
3948.06     62.863   100.984
4005.49     63.243    78.223
4063.75     62.699    54.367
4122.86     62.655    36.381
4182.82     63.064    14.178
4243.66     63.970    -9.489
4305.39     63.928   -41.286
4368.01     63.168   -67.002
4431.55     62.565   -93.466
4496.01     62.236  -112.516
4561.40     62.836  -141.409
4627.75     62.066  -173.033
4695.06     60.683   159.766
4763.35     59.806   143.643
4832.64     60.348   119.178
4902.93     60.051    90.005
4974.24     58.727    63.390
5046.60     57.844    43.763
5120.00     57.969    21.658
5194.47     57.834    -5.804
5270.03     56.856   -30.889
5346.68     56.527   -48.588
5424.45     57.906   -75.193
5503.35     57.625  -110.715
5583.40     56.806  -142.972
5664.61     56.116  -171.504
5747.01     55.680   161.101
5830.60     55.412   132.482
5915.41     55.552   105.956
6001.45     56.111    71.564
6088.74     55.424    40.127
6177.30     55.346    14.085
6267.15     55.246   -22.134
6358.31     54.379   -54.976
6450.80     53.604   -81.529
6544.62     53.321  -113.976
6639.82     52.536  -142.834
6736.40     52.971  -166.406
6834.38     54.291   158.187
6933.79     54.616   118.839
7034.64     54.796    75.685
7136.96     54.123    32.522
7240.77     53.099    -5.384
7346.09     53.148   -45.918
7452.94     51.902   -94.543
7561.35     50.200  -130.242
7671.33     49.256  -176.584
7782.91     46.080   143.040
7896.12     43.592   110.835
8010.97     39.611   105.297
8127.49     40.991    96.262
8245.71     42.772    67.025
8365.65     45.384    24.265
8487.33     44.589   -27.042
8610.78     45.234   -66.538
8736.03     44.728  -124.868
8863.09     42.216  -157.056
8992.01     42.026   159.196
9122.80     38.972   116.064
9255.50     37.521    84.232
9390.12     37.317    49.798
9526.70     39.312    11.361
9665.27     40.594   -38.275
9805.86     41.007   -82.419
9948.49     42.191  -135.466
10093.2     41.415   178.167
10240.0     41.789   128.614
10388.9     40.044    81.852
10540.1     39.605    29.499
10693.4     39.085   -14.046
10848.9     39.210   -51.208
11006.7     40.702  -102.550
11166.8     42.156  -154.080
11329.2     42.614   142.417
11494.0     42.928    83.302
11661.2     43.325    14.890
11830.8     41.970   -41.541
12002.9     40.090   -97.784
12177.5     40.962  -147.806
12354.6     41.569   154.872
12534.3     41.179    83.409
12716.6     41.092    23.096
12901.6     41.171   -40.646
13089.2     38.952  -107.766
13279.6     37.711  -168.995
13472.8     37.230   139.669
13668.8     39.635    86.040
13867.6     41.663    23.045
14069.3     42.112   -60.036
14273.9     42.403  -145.675
14481.5     41.097   132.655
14692.2     39.311    56.970
14905.9     37.829    -9.440
15122.7     37.388   -71.020
15342.7     38.685  -143.448
15565.8     38.789   121.619
15792.2     38.555    27.444
16021.9     37.043   -69.320
16255.0     34.168   101.014
16491.4     34.167   179.080
16731.3     36.092    57.480
16974.7     36.418   -28.323
17221.6     37.292  -120.991
17472.1     37.080   142.952
17726.2     34.072    39.315
17984.0     30.690   -79.682
18245.6     30.374    48.201
18511.0     29.914   -73.731
18780.2     29.579   124.716
19053.4     30.165   170.866
19330.5     29.791  -177.417
19611.7     29.803   -78.697
19897.0     30.628   150.919
20186.4     30.379    48.464
20480.0     30.131   -54.024
20777.9     29.882  -156.502
21080.1     29.633   101.009
21386.7     29.384    -1.478
21697.8     29.135  -103.952
22013.4     28.887   153.565
22333.6     28.638    51.086
22658.4     28.389   -51.412
22988.0     28.140  -153.886
23322.4     27.891   103.642
23661.6     27.643     1.151
24005.8     27.394  -101.321
24355.0     27.145   156.205
24709.2     26.896    53.708
25068.6     26.647   -48.775
25433.2     26.398  -151.265
25803.2     26.150   106.272
26178.5     25.901     3.785
26559.3     25.652   -98.690
26945.6     25.403   158.824
27337.5     25.154    56.334
27735.2     24.906   -46.131
28138.6     24.657  -148.617
28547.9     24.408   108.905
28963.1     24.159     6.414
29384.4     23.910   -96.063
29811.8     23.661   161.453
30245.4     23.413    58.966
30685.3     23.164   -43.523
31131.7     22.915  -145.987
31584.5     22.666   111.526
32043.9     22.417     9.042
32510.0     22.169   -93.437
32982.8     21.920   164.066
33462.6     21.671    61.595
33949.3     21.422   -40.891
34443.1     21.173  -143.374
34944.1     20.924   114.147
35452.4     20.676    11.670
35968.0     20.427   -90.825
36491.2     20.178   166.700
37022.0     19.929    64.222
37560.5     19.680   -38.258
38106.8     19.432  -140.746
38661.1     19.183   116.776
39223.4     18.934    14.288
39793.9     18.685   -88.198
