* Freq[Hz]      Mag   Phase[Deg]
5.00000   -240.000     0.000
5.07273   -240.000     0.000
5.14651   -240.000     0.000
5.22137   -240.000     0.000
5.29732   -240.000     0.000
5.37437   -240.000     0.000
5.45254   -240.000     0.000
5.53185   -240.000     0.000
5.61231   -240.000     0.000
5.69394   -240.000     0.000
5.77676   -240.000     0.000
5.86079   -240.000     0.000
5.94604   -240.000     0.000
6.03252   -240.000     0.000
6.12027   -240.000     0.000
6.20929   -240.000     0.000
6.29961   -240.000     0.000
6.39124   -240.000     0.000
6.48420   -240.000     0.000
6.57851   -240.000     0.000
6.67420   -240.000     0.000
6.77128   -240.000     0.000
6.86977   -240.000     0.000
6.96969   -240.000     0.000
7.07107   -240.000     0.000
7.17392   -240.000     0.000
7.27827   -240.000     0.000
7.38413   -240.000     0.000
7.49154   -240.000     0.000
7.60050   -240.000     0.000
7.71105   -240.000     0.000
7.82321   -240.000     0.000
7.93701   -240.000     0.000
8.05245   -240.000     0.000
8.16958   -240.000     0.000
8.28841   -240.000     0.000
8.40896   -240.000     0.000
8.53128   -240.000     0.000
8.65537   -240.000     0.000
8.78126   -240.000     0.000
8.90899   -240.000     0.000
9.03857   -232.975     0.000
9.17004   -221.954     0.000
9.30342   -210.933     0.000
9.43874   -199.913     0.000
9.57603   -188.892     0.000
9.71532   -177.871     0.000
9.85663   -166.850     0.000
10.0000   -155.829     0.000
10.1455   -155.813     0.000
10.2930   -122.706     0.000
10.4427     -8.677     0.000
10.5946     34.868     0.000
10.7487     35.467     0.000
10.9051     36.308     0.000
11.0637     37.052     0.000
11.2246     37.645     0.000
11.3879     37.854     0.000
11.5535     37.868     0.000
11.7216     37.621     0.000
11.8921     36.979     0.000
12.0650     36.029     0.000
12.2405     34.698     0.000
12.4186     32.368     0.000
12.5992     29.888     0.000
12.7825     27.550     0.000
12.9684     26.237     0.000
13.1570     28.410     0.000
13.3484     30.957     0.000
13.5426     32.990     0.000
13.7395     34.324     0.000
13.9394     34.892     0.000
14.1421     35.039     0.000
14.3478     34.853     0.000
14.5565     34.430     0.000
14.7683     33.915     0.000
14.9831     33.763     0.000
15.2010     34.016     0.000
15.4221     34.652     0.000
15.6464     35.341     0.000
15.8740     35.865     0.000
16.1049     36.093     0.000
16.3392     35.931     0.000
16.5768     35.335     0.000
16.8179     34.301     0.000
17.0626     32.853     0.000
17.3107     31.140     0.000
17.5625     29.601     0.000
17.8180     28.590     0.000
18.0771     28.312     0.000
18.3401     28.224     0.000
18.6068     27.947     0.000
18.8775     27.156     0.000
19.1521     25.779     0.000
19.4306     23.798     0.000
19.7133     21.484     0.000
20.0000     19.837     0.000
20.2909     20.146     0.000
20.5860     21.446     0.000
20.8855     22.428     0.000
21.1893     22.255     0.000
21.4975     21.194     0.000
21.8102     21.001     0.000
22.1274     24.023     0.000
22.4492     27.537     0.000
22.7758     29.869     0.000
23.1071     30.854     0.000
23.4432     31.065     0.000
23.7841     31.885     0.000
24.1301     34.134     0.000
24.4811     36.939     0.000
24.8372     39.128     0.000
25.1984     40.492     0.000
25.5649     41.227     0.000
25.9368     41.817     0.000
26.3141     42.805     0.000
26.6968     44.154     0.000
27.0851     45.299     0.000
27.4791     45.926     0.000
27.8788     46.069     0.000
28.2843     46.254     0.000
28.6957     47.001     0.000
29.1131     48.034     0.000
29.5365     48.776     0.000
29.9661     49.125     0.000
30.4020     49.835     0.000
30.8442     51.407     0.000
31.2929     53.326     0.000
31.7480     54.825     0.000
32.2098     55.689     0.000
32.6783     56.190     0.000
33.1536     56.678     0.000
33.6359     57.364     0.000
34.1251     58.247     0.000
34.6215     59.301     0.000
35.1250     60.479     0.000
35.6359     61.609     0.000
36.1543     62.531     0.000
36.6802     63.263     0.000
37.2137     63.936     0.000
37.7550     64.580     0.000
38.3041     65.131     0.000
38.8613     65.664     0.000
39.4265     66.353     0.000
40.0000     67.148     0.000
40.5818     67.780     0.000
41.1721     68.211     0.000
41.7710     68.679     0.000
42.3785     69.354     0.000
42.9949     70.098     0.000
43.6203     70.766     0.000
44.2548     71.358     0.000
44.8985     71.883     0.000
45.5515     72.363     0.000
46.2141     72.844     0.000
46.8863     73.311     0.000
47.5683     73.709     0.000
48.2602     74.048     0.000
48.9621     74.361     0.000
49.6743     74.651     0.000
50.3968     74.978     0.000
51.1299     75.372     0.000
51.8736     75.736     0.000
52.6281     76.034     0.000
53.3936     76.335     0.000
54.1702     76.637     0.000
54.9581     76.894     0.000
55.7575     77.108     0.000
56.5685     77.296     0.000
57.3914     77.472     0.000
58.2261     77.655     0.000
59.0730     77.829     0.000
59.9323     77.982     0.000
60.8040     78.138     0.000
61.6884     78.300     0.000
62.5857     78.447     0.000
63.4960     78.582     0.000
64.4196     78.708     0.000
65.3566     78.812     0.000
66.3073     78.892     0.000
67.2717     78.983     0.000
68.2502     79.085     0.000
69.2429     79.153     0.000
70.2501     79.195     0.000
71.2719     79.207     0.000
72.3086     79.212     0.000
73.3603     79.267     0.000
74.4274     79.330     0.000
75.5099     79.371     0.000
76.6083     79.384     0.000
77.7226     79.368     0.000
78.8531     79.364     0.000
80.0000     79.385     0.000
81.1636     79.423     0.000
82.3442     79.458     0.000
83.5419     79.477     0.000
84.7570     79.483     0.000
85.9899     79.483     0.000
87.2406     79.490     0.000
88.5096     79.513     0.000
89.7970     79.549     0.000
91.1031     79.586     0.000
92.4282     79.612     0.000
93.7726     79.622     0.000
95.1366     79.623     0.000
96.5204     79.618     0.000
97.9243     79.593     0.000
99.3486     79.549     0.000
100.794     79.518     0.000
102.260     79.507     0.000
103.747     79.505     0.000
105.256     79.506     0.000
106.787     79.508     0.000
108.340     79.513     0.000
109.916     79.522     0.000
111.515     79.529     0.000
113.137     79.525     0.000
114.783     79.512     0.000
116.452     79.488     0.000
118.146     79.458     0.000
119.865     79.432     0.000
121.608     79.412     0.000
123.377     79.404     0.000
125.171     79.404     0.000
126.992     79.416     0.000
128.839     79.435     0.000
130.713     79.449     0.000
132.615     79.448     0.000
134.543     79.436     0.000
136.500     79.413     0.000
138.486     79.393     0.000
140.500     79.378     0.000
142.544     79.353     0.000
144.617     79.320     0.000
146.721     79.306     0.000
148.855     79.314     0.000
151.020     79.324     0.000
153.217     79.327     0.000
155.445     79.315     0.000
157.706     79.297     0.000
160.000     79.292     0.000
162.327     79.292     0.000
164.688     79.288     0.000
167.084     79.291     0.000
169.514     79.310     0.000
171.980     79.338     0.000
174.481     79.358     0.000
177.019     79.361     0.000
179.594     79.354     0.000
182.206     79.348     0.000
184.856     79.352     0.000
187.545     79.371     0.000
190.273     79.385     0.000
193.041     79.387     0.000
195.849     79.399     0.000
198.697     79.420     0.000
201.587     79.427     0.000
204.520     79.425     0.000
207.494     79.437     0.000
210.512     79.454     0.000
213.574     79.464     0.000
216.681     79.475     0.000
219.833     79.495     0.000
223.030     79.509     0.000
226.274     79.503     0.000
229.565     79.495     0.000
232.905     79.508     0.000
236.292     79.537     0.000
239.729     79.553     0.000
243.216     79.545     0.000
246.754     79.531     0.000
250.343     79.533     0.000
253.984     79.571     0.000
257.678     79.634     0.000
261.426     79.688     0.000
265.229     79.722     0.000
269.087     79.746     0.000
273.001     79.767     0.000
276.972     79.785     0.000
281.000     79.782     0.000
285.088     79.765     0.000
289.234     79.766     0.000
293.441     79.788     0.000
297.709     79.801     0.000
302.040     79.797     0.000
306.433     79.786     0.000
310.890     79.782     0.000
315.412     79.795     0.000
320.000     79.812     0.000
324.655     79.840     0.000
329.377     79.878     0.000
334.168     79.901     0.000
339.028     79.910     0.000
343.959     79.918     0.000
348.962     79.923     0.000
354.038     79.907     0.000
359.188     79.879     0.000
364.412     79.861     0.000
369.713     79.846     0.000
375.090     79.814     0.000
380.546     79.770     0.000
386.081     79.725     0.000
391.697     79.668     0.000
397.394     79.596     0.000
403.175     79.519     0.000
409.039     79.436     0.000
414.989     79.356     0.000
421.025     79.295     0.000
427.149     79.252     0.000
433.362     79.228     0.000
439.665     79.225     0.000
446.060     79.239     0.000
452.548     79.264     0.000
459.131     79.295     0.000
465.809     79.327     0.000
472.584     79.343     0.000
479.458     79.333     0.000
486.432     79.289     0.000
493.507     79.199     0.000
500.686     79.051     0.000
507.968     78.855     0.000
515.357     78.620     0.000
522.853     78.352     0.000
530.458     78.075     0.000
538.174     77.809     0.000
546.002     77.591     0.000
553.943     77.462     0.000
562.001     77.441     0.000
570.175     77.542     0.000
578.469     77.745     0.000
586.883     78.008     0.000
595.419     78.291     0.000
604.080     78.565     0.000
612.866     78.801     0.000
621.780     78.982     0.000
630.824     79.097     0.000
640.000     79.139     0.000
649.309     79.123     0.000
658.753     79.072     0.000
668.335     79.000     0.000
678.056     78.928     0.000
687.919     78.879     0.000
697.925     78.867     0.000
708.077     78.899     0.000
718.376     78.961     0.000
728.825     79.025     0.000
739.426     79.067     0.000
750.181     79.060     0.000
761.093     78.996     0.000
772.163     78.871     0.000
783.394     78.687     0.000
794.789     78.478     0.000
806.349     78.285     0.000
818.078     78.153     0.000
829.977     78.138     0.000
842.050     78.259     0.000
854.298     78.506     0.000
866.724     78.833     0.000
879.330     79.181     0.000
892.120     79.498     0.000
905.097     79.732     0.000
918.262     79.867     0.000
931.618     79.899     0.000
945.169     79.842     0.000
958.917     79.718     0.000
972.864     79.574     0.000
987.015     79.440     0.000
1001.37     79.327     0.000
1015.94     79.236     0.000
1030.71     79.134     0.000
1045.71     78.985     0.000
1060.92     78.775     0.000
1076.35     78.525     0.000
1092.00     78.276     0.000
1107.89     78.102     0.000
1124.00     78.056     0.000
1140.35     78.114     0.000
1156.94     78.233     0.000
1173.77     78.350     0.000
1190.84     78.426     0.000
1208.16     78.473     0.000
1225.73     78.492     0.000
1243.56     78.497     0.000
1261.65     78.447     0.000
1280.00     78.312     0.000
1298.62     78.067     0.000
1317.51     77.750     0.000
1336.67     77.427     0.000
1356.11     77.151     0.000
1375.84     76.875     0.000
1395.85     76.522     0.000
1416.15     76.102     0.000
1436.75     75.818     0.000
1457.65     75.964     0.000
1478.85     76.531     0.000
1500.36     77.127     0.000
1522.19     77.439     0.000
1544.33     77.374     0.000
1566.79     77.082     0.000
1589.58     76.859     0.000
1612.70     76.870     0.000
1636.16     76.942     0.000
1659.95     76.871     0.000
1684.10     76.659     0.000
1708.60     76.520     0.000
1733.45     76.567     0.000
1758.66     76.609     0.000
1784.24     76.460     0.000
1810.19     76.206     0.000
1836.52     76.110     0.000
1863.24     76.235     0.000
1890.34     76.418     0.000
1917.83     76.613     0.000
1945.73     76.939     0.000
1974.03     77.364     0.000
2002.74     77.660     0.000
2031.87     77.804     0.000
2061.43     77.982     0.000
2091.41     78.096     0.000
2121.83     77.814     0.000
2152.69     77.161     0.000
2184.01     76.872     0.000
2215.77     77.337     0.000
2248.00     77.841     0.000
2280.70     77.890     0.000
2313.87     77.751     0.000
2347.53     77.740     0.000
2381.68     77.798     0.000
2416.32     77.964     0.000
2451.46     78.249     0.000
2487.12     78.368     0.000
2523.30     78.247     0.000
2560.00     78.152     0.000
2597.24     78.114     0.000
2635.01     78.121     0.000
2673.34     78.302     0.000
2712.23     78.411     0.000
2751.68     78.318     0.000
2791.70     78.328     0.000
2832.31     78.228     0.000
2873.50     77.943     0.000
2915.30     78.154     0.000
2957.70     78.651     0.000
3000.72     78.915     0.000
3044.37     78.981     0.000
3088.65     78.824     0.000
3133.58     78.871     0.000
3179.16     79.152     0.000
3225.40     79.129     0.000
3272.31     79.058     0.000
3319.91     78.995     0.000
3368.20     78.858     0.000
3417.19     78.800     0.000
3466.89     78.891     0.000
3517.32     78.951     0.000
3568.48     78.666     0.000
3620.39     78.489     0.000
3673.05     78.719     0.000
3726.47     79.055     0.000
3780.67     78.818     0.000
3835.67     78.748     0.000
3891.46     79.292     0.000
3948.06     79.157     0.000
4005.49     78.771     0.000
4063.75     79.475     0.000
4122.86     79.795     0.000
4182.82     79.573     0.000
4243.66     79.822     0.000
4305.39     80.038     0.000
4368.01     79.540     0.000
4431.55     79.947     0.000
4496.01     79.484     0.000
4561.40     79.421     0.000
4627.75     79.441     0.000
4695.06     79.033     0.000
4763.35     79.083     0.000
4832.64     79.358     0.000
4902.93     79.123     0.000
4974.24     79.875     0.000
5046.60     79.255     0.000
5120.00     79.389     0.000
5194.47     79.505     0.000
5270.03     78.990     0.000
5346.68     79.247     0.000
5424.45     79.156     0.000
5503.35     79.056     0.000
5583.40     78.577     0.000
5664.61     79.266     0.000
5747.01     79.059     0.000
5830.60     79.436     0.000
5915.41     79.612     0.000
6001.45     79.839     0.000
6088.74     80.084     0.000
6177.30     79.951     0.000
6267.15     79.973     0.000
6358.31     79.326     0.000
6450.80     79.055     0.000
6544.62     78.719     0.000
6639.82     77.954     0.000
6736.40     77.701     0.000
6834.38     77.485     0.000
6933.79     77.422     0.000
7034.64     77.380     0.000
7136.96     77.466     0.000
7240.77     77.815     0.000
7346.09     77.524     0.000
7452.94     77.981     0.000
7561.35     77.666     0.000
7671.33     78.176     0.000
7782.91     78.238     0.000
7896.12     78.582     0.000
8010.97     78.544     0.000
8127.49     78.414     0.000
8245.71     77.761     0.000
8365.65     77.224     0.000
8487.33     76.781     0.000
8610.78     76.713     0.000
8736.03     76.636     0.000
8863.09     76.892     0.000
8992.01     76.994     0.000
9122.80     77.143     0.000
9255.50     77.313     0.000
9390.12     77.415     0.000
9526.70     77.473     0.000
9665.27     77.589     0.000
9805.86     77.796     0.000
9948.49     78.293     0.000
10093.2     78.688     0.000
10240.0     78.936     0.000
10388.9     78.921     0.000
10540.1     78.624     0.000
10693.4     78.310     0.000
10848.9     77.998     0.000
11006.7     77.913     0.000
11166.8     77.803     0.000
11329.2     77.875     0.000
11494.0     77.938     0.000
11661.2     77.986     0.000
11830.8     77.446     0.000
12002.9     76.877     0.000
12177.5     76.348     0.000
12354.6     76.470     0.000
12534.3     77.099     0.000
12716.6     77.577     0.000
12901.6     77.391     0.000
13089.2     76.537     0.000
13279.6     75.761     0.000
13472.8     75.825     0.000
13668.8     76.410     0.000
13867.6     76.678     0.000
14069.3     76.317     0.000
14273.9     75.784     0.000
14481.5     75.652     0.000
14692.2     76.054     0.000
14905.9     76.332     0.000
15122.7     76.062     0.000
15342.7     75.693     0.000
15565.8     75.660     0.000
15792.2     75.841     0.000
16021.9     75.845     0.000
16255.0     75.717     0.000
16491.4     75.911     0.000
16731.3     76.179     0.000
16974.7     75.918     0.000
17221.6     75.579     0.000
17472.1     75.880     0.000
17726.2     76.503     0.000
17984.0     76.843     0.000
18245.6     76.523     0.000
18511.0     76.389     0.000
18780.2     77.232     0.000
19053.4     78.306     0.000
19330.5     78.138     0.000
19611.7     77.862     0.000
19897.0     79.047     0.000
20186.4     80.159     0.000
20480.0     80.310     0.000
20777.9     80.907     0.000
21080.1     82.072     0.000
21386.7     82.832     0.000
21697.8     83.265     0.000
22013.4     84.112     0.000
22333.6     84.981     0.000
22658.4     85.333     0.000
22988.0     85.898     0.000
23322.4     86.708     0.000
23661.6     86.861     0.000
24005.8     86.861     0.000
24355.0     86.861     0.000
24709.2     86.861     0.000
25068.6     86.861     0.000
25433.2     86.860     0.000
25803.2     86.860     0.000
26178.5     86.860     0.000
26559.3     86.860     0.000
26945.6     86.860     0.000
27337.5     86.859     0.000
27735.2     86.859     0.000
28138.6     86.859     0.000
28547.9     86.859     0.000
28963.1     86.859     0.000
29384.4     86.859     0.000
29811.8     86.858     0.000
30245.4     86.858     0.000
30685.3     86.858     0.000
31131.7     86.858     0.000
31584.5     86.858     0.000
32043.9     86.857     0.000
32510.0     86.857     0.000
32982.8     86.857     0.000
33462.6     86.857     0.000
33949.3     86.857     0.000
34443.1     86.857     0.000
34944.1     86.856     0.000
35452.4     86.856     0.000
35968.0     86.856     0.000
36491.2     86.856     0.000
37022.0     86.856     0.000
37560.5     86.856     0.000
38106.8     86.856     0.000
38661.1     86.855     0.000
39223.4     86.855     0.000
39793.9     86.855     0.000
