* Freq[Hz]      Mag   Phase[Deg]
5.00000   -240.000     0.000
5.07273   -240.000     0.000
5.14651   -240.000     0.000
5.22137   -240.000     0.000
5.29732   -240.000     0.000
5.37437   -240.000     0.000
5.45254   -240.000     0.000
5.53185   -240.000     0.000
5.61231   -240.000     0.000
5.69394   -240.000     0.000
5.77676   -240.000     0.000
5.86079   -240.000     0.000
5.94604   -240.000     0.000
6.03252   -240.000     0.000
6.12027   -240.000     0.000
6.20929   -240.000     0.000
6.29961   -240.000     0.000
6.39124   -240.000     0.000
6.48420   -240.000     0.000
6.57851   -240.000     0.000
6.67420   -240.000     0.000
6.77128   -240.000     0.000
6.86977   -240.000     0.000
6.96969   -240.000     0.000
7.07107   -240.000     0.000
7.17392   -240.000     0.000
7.27827   -240.000     0.000
7.38413   -240.000     0.000
7.49154   -240.000     0.000
7.60050   -240.000     0.000
7.71105   -240.000     0.000
7.82321   -240.000     0.000
7.93701   -240.000     0.000
8.05245   -240.000     0.000
8.16958   -240.000     0.000
8.28841   -240.000     0.000
8.40896   -240.000     0.000
8.53128   -240.000     0.000
8.65537   -240.000     0.000
8.78126   -240.000     0.000
8.90899   -240.000     0.000
9.03857   -233.501     0.000
9.17004   -222.483     0.000
9.30342   -211.464     0.000
9.43874   -200.445     0.000
9.57603   -189.426     0.000
9.71532   -178.407     0.000
9.85663   -167.388     0.000
10.0000   -156.369     0.000
10.1455   -156.353     0.000
10.2930   -123.248     0.000
10.4427     -9.220     0.000
10.5946     34.322     0.000
10.7487     34.919     0.000
10.9051     35.759     0.000
11.0637     36.501     0.000
11.2246     37.091     0.000
11.3879     37.298     0.000
11.5535     37.309     0.000
11.7216     37.061     0.000
11.8921     36.416     0.000
12.0650     35.463     0.000
12.2405     34.130     0.000
12.4186     31.798     0.000
12.5992     29.315     0.000
12.7825     26.974     0.000
12.9684     25.658     0.000
13.1570     27.829     0.000
13.3484     30.373     0.000
13.5426     32.403     0.000
13.7395     33.733     0.000
13.9394     34.298     0.000
14.1421     34.443     0.000
14.3478     34.253     0.000
14.5565     33.827     0.000
14.7683     33.309     0.000
14.9831     33.153     0.000
15.2010     33.402     0.000
15.4221     34.035     0.000
15.6464     34.720     0.000
15.8740     35.240     0.000
16.1049     35.464     0.000
16.3392     35.298     0.000
16.5768     34.698     0.000
16.8179     33.660     0.000
17.0626     32.207     0.000
17.3107     30.490     0.000
17.5625     28.947     0.000
17.8180     27.931     0.000
18.0771     27.648     0.000
18.3401     27.556     0.000
18.6068     27.274     0.000
18.8775     26.478     0.000
19.1521     25.095     0.000
19.4306     23.110     0.000
19.7133     20.790     0.000
20.0000     19.138     0.000
20.2909     19.441     0.000
20.5860     20.735     0.000
20.8855     21.712     0.000
21.1893     21.533     0.000
21.4975     20.466     0.000
21.8102     20.267     0.000
22.1274     23.283     0.000
22.4492     26.791     0.000
22.7758     29.117     0.000
23.1071     30.096     0.000
23.4432     30.300     0.000
23.7841     31.114     0.000
24.1301     33.356     0.000
24.4811     36.155     0.000
24.8372     38.337     0.000
25.1984     39.694     0.000
25.5649     40.421     0.000
25.9368     41.005     0.000
26.3141     41.986     0.000
26.6968     43.327     0.000
27.0851     44.466     0.000
27.4791     45.086     0.000
27.8788     45.222     0.000
28.2843     45.398     0.000
28.6957     46.138     0.000
29.1131     47.164     0.000
29.5365     47.898     0.000
29.9661     48.240     0.000
30.4020     48.943     0.000
30.8442     50.507     0.000
31.2929     52.418     0.000
31.7480     53.910     0.000
32.2098     54.767     0.000
32.6783     55.260     0.000
33.1536     55.741     0.000
33.6359     56.419     0.000
34.1251     57.295     0.000
34.6215     58.342     0.000
35.1250     59.512     0.000
35.6359     60.635     0.000
36.1543     61.550     0.000
36.6802     62.275     0.000
37.2137     62.941     0.000
37.7550     63.579     0.000
38.3041     64.123     0.000
38.8613     64.649     0.000
39.4265     65.331     0.000
40.0000     66.120     0.000
40.5818     66.745     0.000
41.1721     67.170     0.000
41.7710     67.632     0.000
42.3785     68.301     0.000
42.9949     69.039     0.000
43.6203     69.701     0.000
44.2548     70.288     0.000
44.8985     70.807     0.000
45.5515     71.282     0.000
46.2141     71.758     0.000
46.8863     72.220     0.000
47.5683     72.612     0.000
48.2602     72.947     0.000
48.9621     73.255     0.000
49.6743     73.541     0.000
50.3968     73.864     0.000
51.1299     74.254     0.000
51.8736     74.614     0.000
52.6281     74.909     0.000
53.3936     75.206     0.000
54.1702     75.505     0.000
54.9581     75.758     0.000
55.7575     75.969     0.000
56.5685     76.154     0.000
57.3914     76.328     0.000
58.2261     76.507     0.000
59.0730     76.679     0.000
59.9323     76.829     0.000
60.8040     76.983     0.000
61.6884     77.143     0.000
62.5857     77.287     0.000
63.4960     77.420     0.000
64.4196     77.544     0.000
65.3566     77.646     0.000
66.3073     77.725     0.000
67.2717     77.813     0.000
68.2502     77.913     0.000
69.2429     77.979     0.000
70.2501     78.020     0.000
71.2719     78.031     0.000
72.3086     78.034     0.000
73.3603     78.087     0.000
74.4274     78.148     0.000
75.5099     78.187     0.000
76.6083     78.198     0.000
77.7226     78.181     0.000
78.8531     78.175     0.000
80.0000     78.195     0.000
81.1636     78.231     0.000
82.3442     78.263     0.000
83.5419     78.281     0.000
84.7570     78.284     0.000
85.9899     78.283     0.000
87.2406     78.287     0.000
88.5096     78.307     0.000
89.7970     78.341     0.000
91.1031     78.375     0.000
92.4282     78.399     0.000
93.7726     78.406     0.000
95.1366     78.403     0.000
96.5204     78.395     0.000
97.9243     78.366     0.000
99.3486     78.318     0.000
100.794     78.283     0.000
102.260     78.268     0.000
103.747     78.261     0.000
105.256     78.257     0.000
106.787     78.254     0.000
108.340     78.253     0.000
109.916     78.256     0.000
111.515     78.257     0.000
113.137     78.247     0.000
114.783     78.226     0.000
116.452     78.194     0.000
118.146     78.157     0.000
119.865     78.122     0.000
121.608     78.092     0.000
123.377     78.074     0.000
125.171     78.064     0.000
126.992     78.065     0.000
128.839     78.072     0.000
130.713     78.072     0.000
132.615     78.058     0.000
134.543     78.030     0.000
136.500     77.991     0.000
138.486     77.954     0.000
140.500     77.921     0.000
142.544     77.874     0.000
144.617     77.820     0.000
146.721     77.784     0.000
148.855     77.766     0.000
151.020     77.749     0.000
153.217     77.723     0.000
155.445     77.680     0.000
157.706     77.630     0.000
160.000     77.588     0.000
162.327     77.549     0.000
164.688     77.507     0.000
167.084     77.468     0.000
169.514     77.440     0.000
171.980     77.418     0.000
174.481     77.391     0.000
177.019     77.347     0.000
179.594     77.287     0.000
182.206     77.226     0.000
184.856     77.175     0.000
187.545     77.145     0.000
190.273     77.108     0.000
193.041     77.062     0.000
195.849     77.029     0.000
198.697     77.007     0.000
201.587     76.976     0.000
204.520     76.942     0.000
207.494     76.926     0.000
210.512     76.922     0.000
213.574     76.914     0.000
216.681     76.913     0.000
219.833     76.926     0.000
223.030     76.937     0.000
226.274     76.931     0.000
229.565     76.927     0.000
232.905     76.945     0.000
236.292     76.982     0.000
239.729     77.007     0.000
243.216     77.010     0.000
246.754     77.005     0.000
250.343     77.018     0.000
253.984     77.065     0.000
257.678     77.137     0.000
261.426     77.199     0.000
265.229     77.239     0.000
269.087     77.266     0.000
273.001     77.289     0.000
276.972     77.308     0.000
281.000     77.302     0.000
285.088     77.280     0.000
289.234     77.272     0.000
293.441     77.282     0.000
297.709     77.280     0.000
302.040     77.256     0.000
306.433     77.222     0.000
310.890     77.191     0.000
315.412     77.173     0.000
320.000     77.156     0.000
324.655     77.147     0.000
329.377     77.145     0.000
334.168     77.123     0.000
339.028     77.086     0.000
343.959     77.046     0.000
348.962     77.001     0.000
354.038     76.936     0.000
359.188     76.856     0.000
364.412     76.784     0.000
369.713     76.717     0.000
375.090     76.636     0.000
380.546     76.543     0.000
386.081     76.455     0.000
391.697     76.360     0.000
397.394     76.261     0.000
403.175     76.169     0.000
409.039     76.083     0.000
414.989     76.017     0.000
421.025     75.984     0.000
427.149     75.982     0.000
433.362     76.010     0.000
439.665     76.065     0.000
446.060     76.133     0.000
452.548     76.205     0.000
459.131     76.270     0.000
465.809     76.319     0.000
472.584     76.331     0.000
479.458     76.298     0.000
486.432     76.209     0.000
493.507     76.052     0.000
500.686     75.817     0.000
507.968     75.517     0.000
515.357     75.169     0.000
522.853     74.782     0.000
530.458     74.395     0.000
538.174     74.043     0.000
546.002     73.778     0.000
553.943     73.653     0.000
562.001     73.684     0.000
570.175     73.861     0.000
578.469     74.140     0.000
586.883     74.450     0.000
595.419     74.738     0.000
604.080     74.970     0.000
612.866     75.118     0.000
621.780     75.167     0.000
630.824     75.109     0.000
640.000     74.946     0.000
649.309     74.702     0.000
658.753     74.410     0.000
668.335     74.095     0.000
678.056     73.810     0.000
687.919     73.594     0.000
697.925     73.469     0.000
708.077     73.443     0.000
718.376     73.484     0.000
728.825     73.546     0.000
739.426     73.595     0.000
750.181     73.600     0.000
761.093     73.561     0.000
772.163     73.485     0.000
783.394     73.382     0.000
794.789     73.286     0.000
806.349     73.219     0.000
818.078     73.187     0.000
829.977     73.197     0.000
842.050     73.240     0.000
854.298     73.304     0.000
866.724     73.373     0.000
879.330     73.439     0.000
892.120     73.496     0.000
905.097     73.528     0.000
918.262     73.528     0.000
931.618     73.490     0.000
945.169     73.408     0.000
958.917     73.282     0.000
972.864     73.138     0.000
987.015     72.992     0.000
1001.37     72.863     0.000
1015.94     72.770     0.000
1030.71     72.697     0.000
1045.71     72.620     0.000
1060.92     72.523     0.000
1076.35     72.419     0.000
1092.00     72.329     0.000
1107.89     72.293     0.000
1124.00     72.334     0.000
1140.35     72.408     0.000
1156.94     72.464     0.000
1173.77     72.442     0.000
1190.84     72.320     0.000
1208.16     72.142     0.000
1225.73     71.958     0.000
1243.56     71.849     0.000
1261.65     71.804     0.000
1280.00     71.756     0.000
1298.62     71.617     0.000
1317.51     71.367     0.000
1336.67     71.048     0.000
1356.11     70.788     0.000
1375.84     70.694     0.000
1395.85     70.783     0.000
1416.15     70.962     0.000
1436.75     71.119     0.000
1457.65     71.186     0.000
1478.85     71.120     0.000
1500.36     70.906     0.000
1522.19     70.587     0.000
1544.33     70.232     0.000
1566.79     69.947     0.000
1589.58     69.827     0.000
1612.70     69.907     0.000
1636.16     70.126     0.000
1659.95     70.396     0.000
1684.10     70.576     0.000
1708.60     70.578     0.000
1733.45     70.428     0.000
1758.66     70.276     0.000
1784.24     70.299     0.000
1810.19     70.465     0.000
1836.52     70.581     0.000
1863.24     70.495     0.000
1890.34     70.278     0.000
1917.83     70.102     0.000
1945.73     70.099     0.000
1974.03     70.313     0.000
2002.74     70.647     0.000
2031.87     70.944     0.000
2061.43     71.066     0.000
2091.41     70.939     0.000
2121.83     70.619     0.000
2152.69     70.315     0.000
2184.01     70.339     0.000
2215.77     70.758     0.000
2248.00     71.185     0.000
2280.70     71.206     0.000
2313.87     70.910     0.000
2347.53     70.689     0.000
2381.68     70.640     0.000
2416.32     70.720     0.000
2451.46     71.032     0.000
2487.12     71.439     0.000
2523.30     71.646     0.000
2560.00     71.676     0.000
2597.24     71.598     0.000
2635.01     71.503     0.000
2673.34     71.651     0.000
2712.23     71.883     0.000
2751.68     71.867     0.000
2791.70     71.798     0.000
2832.31     71.688     0.000
2873.50     71.641     0.000
2915.30     72.003     0.000
2957.70     72.188     0.000
3000.72     72.214     0.000
3044.37     72.545     0.000
3088.65     72.517     0.000
3133.58     72.452     0.000
3179.16     72.741     0.000
3225.40     72.814     0.000
3272.31     72.931     0.000
3319.91     72.980     0.000
3368.20     73.117     0.000
3417.19     73.182     0.000
3466.89     73.087     0.000
3517.32     73.257     0.000
3568.48     73.340     0.000
3620.39     73.251     0.000
3673.05     73.090     0.000
3726.47     73.628     0.000
3780.67     73.675     0.000
3835.67     73.364     0.000
3891.46     73.792     0.000
3948.06     74.535     0.000
4005.49     74.166     0.000
4063.75     74.466     0.000
4122.86     74.829     0.000
4182.82     75.011     0.000
4243.66     74.887     0.000
4305.39     75.336     0.000
4368.01     74.839     0.000
4431.55     75.252     0.000
4496.01     75.018     0.000
4561.40     74.851     0.000
4627.75     74.868     0.000
4695.06     75.000     0.000
4763.35     75.173     0.000
4832.64     75.279     0.000
4902.93     75.495     0.000
4974.24     75.952     0.000
5046.60     76.265     0.000
5120.00     76.327     0.000
5194.47     76.417     0.000
5270.03     76.163     0.000
5346.68     76.109     0.000
5424.45     75.919     0.000
5503.35     75.468     0.000
5583.40     75.520     0.000
5664.61     75.213     0.000
5747.01     75.448     0.000
5830.60     75.288     0.000
5915.41     75.729     0.000
6001.45     75.277     0.000
6088.74     75.742     0.000
6177.30     75.487     0.000
6267.15     75.307     0.000
6358.31     75.002     0.000
6450.80     74.719     0.000
6544.62     73.801     0.000
6639.82     73.726     0.000
6736.40     72.865     0.000
6834.38     72.726     0.000
6933.79     72.338     0.000
7034.64     72.318     0.000
7136.96     72.110     0.000
7240.77     71.868     0.000
7346.09     71.755     0.000
7452.94     71.648     0.000
7561.35     71.243     0.000
7671.33     71.225     0.000
7782.91     71.168     0.000
7896.12     71.167     0.000
8010.97     71.033     0.000
8127.49     70.705     0.000
8245.71     70.273     0.000
8365.65     69.804     0.000
8487.33     69.654     0.000
8610.78     69.459     0.000
8736.03     69.599     0.000
8863.09     69.686     0.000
8992.01     69.899     0.000
9122.80     69.966     0.000
9255.50     69.845     0.000
9390.12     69.776     0.000
9526.70     69.682     0.000
9665.27     69.624     0.000
9805.86     69.797     0.000
9948.49     70.226     0.000
10093.2     70.635     0.000
10240.0     70.870     0.000
10388.9     70.841     0.000
10540.1     70.595     0.000
10693.4     70.312     0.000
10848.9     70.051     0.000
11006.7     69.936     0.000
11166.8     69.918     0.000
11329.2     70.078     0.000
11494.0     70.185     0.000
11661.2     70.297     0.000
11830.8     69.825     0.000
12002.9     69.290     0.000
12177.5     68.670     0.000
12354.6     68.560     0.000
12534.3     69.011     0.000
12716.6     69.386     0.000
12901.6     69.113     0.000
13089.2     68.167     0.000
13279.6     67.178     0.000
13472.8     67.018     0.000
13668.8     67.487     0.000
13867.6     67.675     0.000
14069.3     67.231     0.000
14273.9     66.505     0.000
14481.5     66.231     0.000
14692.2     66.483     0.000
14905.9     66.595     0.000
15122.7     66.194     0.000
15342.7     65.689     0.000
15565.8     65.551     0.000
15792.2     65.672     0.000
16021.9     65.595     0.000
16255.0     65.272     0.000
16491.4     65.340     0.000
16731.3     65.605     0.000
16974.7     65.304     0.000
17221.6     64.865     0.000
17472.1     65.104     0.000
17726.2     65.761     0.000
17984.0     65.967     0.000
18245.6     65.528     0.000
18511.0     65.419     0.000
18780.2     66.284     0.000
19053.4     67.318     0.000
19330.5     67.042     0.000
19611.7     66.673     0.000
19897.0     67.800     0.000
20186.4     68.810     0.000
20480.0     68.891     0.000
20777.9     69.428     0.000
21080.1     70.433     0.000
21386.7     71.142     0.000
21697.8     71.637     0.000
22013.4     72.442     0.000
22333.6     73.252     0.000
22658.4     73.542     0.000
22988.0     74.000     0.000
23322.4     74.656     0.000
23661.6     74.647     0.000
24005.8     74.641     0.000
24355.0     74.636     0.000
24709.2     74.631     0.000
25068.6     74.625     0.000
25433.2     74.620     0.000
25803.2     74.615     0.000
26178.5     74.610     0.000
26559.3     74.605     0.000
26945.6     74.600     0.000
27337.5     74.596     0.000
27735.2     74.591     0.000
28138.6     74.587     0.000
28547.9     74.582     0.000
28963.1     74.578     0.000
29384.4     74.573     0.000
29811.8     74.569     0.000
30245.4     74.565     0.000
30685.3     74.561     0.000
31131.7     74.557     0.000
31584.5     74.553     0.000
32043.9     74.549     0.000
32510.0     74.545     0.000
32982.8     74.541     0.000
33462.6     74.537     0.000
33949.3     74.534     0.000
34443.1     74.530     0.000
34944.1     74.526     0.000
35452.4     74.523     0.000
35968.0     74.519     0.000
36491.2     74.516     0.000
37022.0     74.513     0.000
37560.5     74.509     0.000
38106.8     74.506     0.000
38661.1     74.503     0.000
39223.4     74.500     0.000
39793.9     74.497     0.000
