"Horizontal Reflections"
"Front"		"Side"		"Rear"		"Total Horizontal Reflection"
"Frequency [Hz]"	"Sound Pessure Level [dB]   [2.83  V @ 1. m]"	"Frequency [Hz]"	"Sound Pessure Level [dB]   [2.83  V @ 1. m]"	"Frequency [Hz]"	"Sound Pessure Level [dB]   [2.83  V @ 1. m]"	"Frequency [Hz]"	"Sound Pessure Level [dB]   [2.83  V @ 1. m]"
20.5078	51.1018	20.5078	50.3984	20.5078	48.5676	20.5078	49.7061
21.9727	56.336	21.9727	55.8535	21.9727	54.6487	21.9727	55.3717
23.4375	53.8983	23.4375	53.1684	23.4375	51.7263	23.4375	52.645
24.9023	54.9372	24.9023	54.3389	24.9023	52.7356	24.9023	53.7131
26.3672	53.0766	26.3672	52.731	26.3672	52.1633	26.3672	52.5148
27.832	53.8485	27.832	53.2179	27.832	51.8664	27.832	52.7081
29.2969	55.0696	29.2969	54.6916	29.2969	53.8745	29.2969	54.3632
30.7617	55.7312	30.7617	55.5076	30.7617	55.11	30.7617	55.3488
32.2266	61.0569	32.2266	60.4651	32.2266	58.9649	32.2266	59.8814
33.6914	66.4839	33.6914	66.3565	33.6914	66.0173	33.6914	66.2069
35.1562	68.1955	35.1562	68.0597	35.1562	67.7821	35.1562	67.943
36.6211	71.2171	36.6211	71.0577	36.6211	70.7233	36.6211	70.9172
38.0859	74.2447	38.0859	74.0402	38.0859	73.6095	38.0859	73.8609
39.5508	76.6696	39.5508	76.4292	39.5508	75.9503	39.5508	76.2336
41.0156	78.5796	41.0156	78.2951	41.0156	77.7024	41.0156	78.0532
42.4805	80.3896	42.4805	80.0581	42.4805	79.1651	42.4805	79.6834
43.9453	81.2488	43.9453	80.9715	43.9453	80.2081	43.9453	80.6458
45.4102	81.383	45.4102	81.2599	45.4102	80.9287	45.4102	81.1134
46.875	82.1918	46.875	82.0717	46.875	81.8341	46.875	81.9722
48.3398	82.5375	48.3398	82.358	48.3398	82.0025	48.3398	82.211
51.2695	83.1823	51.2695	82.9356	51.2695	82.3811	51.2695	82.7041
52.7344	83.4844	52.7344	83.2136	52.7344	82.6058	52.7344	82.9614
54.1992	83.7793	54.1992	83.4809	54.1992	82.7955	54.1992	83.1973
55.6641	84.1176	55.6641	83.8281	55.6641	83.1261	55.6641	83.5345
58.5938	84.4021	58.5938	84.1621	58.5938	83.6115	58.5938	83.9311
60.0586	84.5785	60.0586	84.3306	60.0586	83.7834	60.0586	84.103
62.9883	84.9347	62.9883	84.6882	62.9883	84.1487	62.9883	84.4641
64.4531	85.0641	64.4531	84.8123	64.4531	84.2714	64.4531	84.5887
67.3828	85.3205	67.3828	85.0701	67.3828	84.5259	67.3828	84.8445
68.8477	85.4326	68.8477	85.1896	68.8477	84.6674	68.8477	84.9732
71.7773	85.5481	71.7773	85.3166	71.7773	84.9264	71.7773	85.1632
74.707	85.6515	74.707	85.3926	74.707	84.9616	74.707	85.2247
77.6367	85.6372	77.6367	85.3393	77.6367	84.8217	77.6367	85.1371
79.1016	85.66	79.1016	85.3482	79.1016	84.8018	79.1016	85.1349
82.0312	85.7189	82.0312	85.3784	82.0312	84.7596	82.0312	85.1363
84.9609	85.6573	84.9609	85.3277	84.9609	84.6984	84.9609	85.0781
87.8906	85.4245	87.8906	85.1007	87.8906	84.5665	87.8906	84.896
90.8203	85.3012	90.8203	84.9481	90.8203	84.38	90.8203	84.7334
95.2148	85.0005	95.2148	84.6618	95.2148	84.1544	95.2148	84.4735
98.1445	84.8078	98.1445	84.4054	98.1445	83.8604	98.1445	84.2128
101.074	84.7127	101.074	84.2741	101.074	83.5609	101.074	84.0088
105.469	84.6318	105.469	84.2552	105.469	83.6487	105.469	84.0271
108.398	84.7077	108.398	84.2428	108.398	83.4781	108.398	83.9591
112.793	84.642	112.793	84.1761	112.793	83.4019	112.793	83.8881
117.188	84.3954	117.188	83.8947	117.188	83.0718	117.188	83.5919
120.117	84.3846	120.117	83.8826	120.117	82.9116	120.117	83.5114
124.512	84.2599	124.512	83.8013	124.512	83.0272	124.512	83.5117
128.906	84.0468	128.906	83.5449	128.906	82.9275	128.906	83.3398
133.301	83.9768	133.301	83.4229	133.301	82.7364	133.301	83.1969
139.16	83.7487	139.16	83.1704	139.16	82.2703	139.16	82.8501
143.555	83.4607	143.555	82.9096	143.555	82.0269	143.555	82.5909
147.949	83.1297	147.949	82.5586	147.949	81.7836	147.949	82.2948
153.809	83.0531	153.809	82.3889	153.809	81.3661	153.809	82.0333
159.668	83.1908	159.668	82.4422	159.668	81.4815	159.668	82.1356
165.527	83.386	165.527	82.5781	165.527	81.57	165.527	82.2649
171.387	83.8776	171.387	83.1949	171.387	81.824	171.387	82.6899
177.246	84.3043	177.246	83.5156	177.246	82.6881	177.246	83.2798
183.105	84.5946	183.105	83.8023	183.105	82.8033	183.105	83.4893
188.965	84.6754	188.965	83.9322	188.965	82.891	188.965	83.5879
196.289	85.2723	196.289	84.3622	196.289	82.8036	196.289	83.8374
203.613	85.3723	203.613	84.3984	203.613	83.0812	203.613	83.9926
210.938	85.0148	210.938	84.2199	210.938	82.9036	210.938	83.7674
218.262	84.7819	218.262	83.905	218.262	82.5602	218.262	83.4617
225.586	84.52	225.586	83.7114	225.586	82.418	225.586	83.2724
232.91	84.7657	232.91	83.6491	232.91	82.2036	232.91	83.228
241.699	84.6971	241.699	83.7339	241.699	82.0608	241.699	83.1765
250.488	84.189	250.488	83.4496	250.488	81.7299	250.488	82.8123
259.277	83.3159	259.277	82.7462	259.277	81.6881	259.277	82.3516
268.066	82.928	268.066	82.6642	268.066	82.4137	268.066	82.5879
276.855	82.5975	276.855	80.6348	276.855	84.2513	276.855	83.1802
287.109	86.9153	287.109	83.7908	287.109	83.897	287.109	84.6468
297.363	86.2847	297.363	84.0846	297.363	82.3016	297.363	83.8643
307.617	86.1478	307.617	83.9086	307.617	80.6879	307.617	83.2273
319.336	85.5851	319.336	83.7578	319.336	80.9492	319.336	83.0539
329.59	85.2448	329.59	83.6325	329.59	80.4059	329.59	82.7211
341.309	85.3641	341.309	83.4896	341.309	81.2685	341.309	83.0013
353.027	86.0401	353.027	84.1542	353.027	81.0118	353.027	83.3656
366.211	85.5177	366.211	83.8875	366.211	79.7649	366.211	82.7245
379.395	85.2834	379.395	83.4075	379.395	79.3361	379.395	82.3504
392.578	85.3692	392.578	83.553	392.578	79.4825	392.578	82.4735
405.762	84.9441	405.762	83.6756	405.762	79.6182	405.762	82.4003
420.41	85.3412	420.41	83.7007	420.41	79.4752	420.41	82.5143
435.059	85.6729	435.059	84.1049	435.059	79.2919	435.059	82.7442
451.172	85.4937	451.172	84.2601	451.172	79.9534	451.172	82.9045
465.82	85.2226	465.82	83.7164	465.82	79.1362	465.82	82.3891
483.398	85.0574	483.398	83.562	483.398	78.9188	483.398	82.215
499.512	85.4383	499.512	84.0664	499.512	78.8076	499.512	82.5279
517.09	83.8938	517.09	84.3589	517.09	80.2248	517.09	82.5292
536.133	84.9327	536.133	83.8195	536.133	79.7748	536.133	82.4942
555.176	85.3931	555.176	84.2104	555.176	78.8526	555.176	82.5786
574.219	84.743	574.219	83.6497	574.219	79.1057	574.219	82.1822
594.727	84.5795	594.727	82.9771	594.727	78.1911	594.727	81.6359
615.234	86.6721	615.234	85.453	615.234	79.7224	615.234	83.7543
637.207	86.3071	637.207	85.0576	637.207	80.6819	637.207	83.6893
659.18	86.1819	659.18	84.1	659.18	79.1373	659.18	82.909
682.617	86.23	682.617	83.9709	682.617	79.249	682.617	82.9076
707.52	86.022	707.52	83.6404	707.52	77.3534	707.52	82.323
732.422	86.704	732.422	84.5895	732.422	79.1265	732.422	83.3064
757.324	86.8136	757.324	84.8417	757.324	79.8634	757.324	83.6021
785.156	86.0255	785.156	83.2477	785.156	82.5909	785.156	83.662
811.523	86.316	811.523	81.9547	811.523	76.7108	811.523	81.806
840.82	86.6691	840.82	83.4724	840.82	81.3161	840.82	83.4939
870.117	87.9314	870.117	83.8647	870.117	78.5418	870.117	83.5435
900.879	88.9447	900.879	85.9694	900.879	80.4428	900.879	85.0617
933.105	89.0245	933.105	84.9612	933.105	79.1072	933.105	84.5539
965.332	89.6242	965.332	86.309	965.332	78.6898	965.332	85.2647
1,000.49	89.498	1,000.49	85.841	1,000.49	79.7309	1,000.49	85.1777
1,035.64	88.0917	1,035.64	84.2532	1,035.64	77.3699	1,035.64	83.5807
1,072.27	88.4415	1,072.27	84.5501	1,072.27	78.3944	1,072.27	84.005
1,108.89	87.1898	1,108.89	83.4614	1,108.89	77.2094	1,108.89	82.8149
1,148.44	87.1206	1,148.44	83.5247	1,148.44	76.9785	1,148.44	82.766
1,189.45	87.9913	1,189.45	83.3272	1,189.45	74.8556	1,189.45	82.9742
1,230.47	86.6318	1,230.47	82.5258	1,230.47	75.6561	1,230.47	82.0039
1,274.41	86.2819	1,274.41	82.6129	1,274.41	75.5835	1,274.41	81.8295
1,319.82	85.2053	1,319.82	80.8167	1,319.82	74.9745	1,319.82	80.5912
1,366.7	84.8826	1,366.7	80.7691	1,366.7	74.9284	1,366.7	80.3912
1,413.57	84.2328	1,413.57	80.1349	1,413.57	73.9144	1,413.57	79.6934
1,463.38	85.2215	1,463.38	81.9636	1,463.38	75.8524	1,463.38	81.0949
1,516.11	84.4793	1,516.11	81.5765	1,516.11	74.9391	1,516.11	80.4506
1,568.85	83.7144	1,568.85	79.4228	1,568.85	73.3314	1,568.85	79.1073
1,624.51	84.0845	1,624.51	79.4008	1,624.51	72.7599	1,624.51	79.2409
1,681.64	84.8945	1,681.64	80.8279	1,681.64	72.8179	1,681.64	80.1587
1,741.7	85.7954	1,741.7	81.3797	1,741.7	73.2333	1,741.7	80.9034
1,803.22	85.5034	1,803.22	81.1465	1,803.22	73.5754	1,803.22	80.6907
1,866.21	85.0038	1,866.21	80.8933	1,866.21	72.6509	1,866.21	80.2277
1,932.13	84.2789	1,932.13	80.1192	1,932.13	72.1003	1,932.13	79.5033
1,999.51	84.343	1,999.51	80.2985	1,999.51	71.6418	1,999.51	79.5575
2,069.82	85.0323	2,069.82	80.9472	2,069.82	72.5331	2,069.82	80.2511
2,143.07	85.032	2,143.07	81.1016	2,143.07	72.3406	2,143.07	80.2853
2,219.24	84.2471	2,219.24	80.8631	2,219.24	71.9376	2,219.24	79.7235
2,296.88	83.3564	2,296.88	80.14	2,296.88	71.1785	2,296.88	78.9057
2,378.91	83.3418	2,378.91	80.5145	2,378.91	71.8859	2,378.91	79.1059
2,462.4	84.5913	2,462.4	81.5369	2,462.4	71.7098	2,462.4	80.1436
2,548.83	85.1622	2,548.83	82.5853	2,548.83	72.8533	2,548.83	80.9477
2,639.65	84.2987	2,639.65	81.9327	2,639.65	71.8733	2,639.65	80.1617
2,731.93	83.5465	2,731.93	81.4254	2,731.93	71.5526	2,731.93	79.5479
2,828.61	83.9831	2,828.61	81.5086	2,828.61	70.6619	2,828.61	79.7365
2,928.22	84.2255	2,928.22	82.3661	2,928.22	71.6054	2,928.22	80.2931
3,030.76	85.4574	3,030.76	82.7856	3,030.76	71.4069	3,030.76	81.0846
3,137.7	84.689	3,137.7	82.5427	3,137.7	71.4285	3,137.7	80.5865
3,249.02	84.6658	3,249.02	82.0998	3,249.02	71.0691	3,249.02	80.3636
3,363.28	84.1536	3,363.28	81.1601	3,363.28	69.8025	3,363.28	79.6344
3,481.93	83.8456	3,481.93	81.1202	3,481.93	69.5709	3,481.93	79.4384
3,604.98	83.9486	3,604.98	81.3204	3,604.98	70.4978	3,604.98	79.63
3,732.42	84.2527	3,732.42	81.3233	3,732.42	70.4012	3,732.42	79.7877
3,864.26	84.0475	3,864.26	81.4713	3,864.26	70.2898	3,864.26	79.7313
4,000.49	83.2243	4,000.49	80.3504	4,000.49	69.5936	4,000.49	78.7951
4,141.11	84.2896	4,141.11	80.9158	4,141.11	69.3986	4,141.11	79.5954
4,287.6	84.6603	4,287.6	81.0862	4,287.6	69.2561	4,287.6	79.8668
4,438.48	84.9153	4,438.48	80.9575	4,438.48	68.3642	4,438.48	79.9367
4,595.21	85.3492	4,595.21	80.0334	4,595.21	66.508	4,595.21	79.8673
4,756.35	85.9963	4,756.35	79.5683	4,756.35	65.3853	4,756.35	80.1835
4,924.8	86.1702	4,924.8	80.1415	4,924.8	66.0576	4,924.8	80.4662
5,097.66	85.6688	5,097.66	80.3228	5,097.66	67.7569	5,097.66	80.2034
5,277.83	85.7144	5,277.83	80.3033	5,277.83	66.7199	5,277.83	80.2015
5,463.87	86.0446	5,463.87	80.7633	5,463.87	67.4241	5,463.87	80.5782
5,657.23	86.3828	5,657.23	79.9677	5,657.23	66.2138	5,657.23	80.5813
5,856.45	86.0735	5,856.45	79.8495	5,856.45	65.268	5,856.45	80.3075
6,062.99	86.7709	6,062.99	79.844	6,062.99	64.7397	6,062.99	80.8212
6,276.86	86.1875	6,276.86	79.9642	6,276.86	64.1268	6,276.86	80.4036
6,498.05	85.7627	6,498.05	79.4456	6,498.05	62.6558	6,498.05	79.9438
6,726.56	86.1771	6,726.56	79.6901	6,726.56	63.3095	6,726.56	80.3192
6,963.87	85.669	6,963.87	78.8596	6,963.87	63.2629	6,963.87	79.741
7,209.96	86.1678	7,209.96	79.262	7,209.96	64.0418	7,209.96	80.2216
7,464.84	86.1987	7,464.84	79.1608	7,464.84	64.7601	7,464.84	80.2329
7,727.05	85.614	7,727.05	78.7529	7,727.05	64.2415	7,727.05	79.6882
7,999.51	85.874	7,999.51	78.6888	7,999.51	63.7183	7,999.51	79.8667
8,282.23	85.3635	8,282.23	77.9022	8,282.23	62.6562	8,282.23	79.2924
8,573.73	85.5848	8,573.73	78.1979	8,573.73	63.1524	8,573.73	79.5321
8,876.95	85.0603	8,876.95	77.5451	8,876.95	62.4757	8,876.95	78.9799
9,188.96	85.4711	9,188.96	77.3381	9,188.96	62.1575	9,188.96	79.266
9,514.16	85.3766	9,514.16	76.7512	9,514.16	61.3802	9,514.16	79.0811
9,849.61	85.7634	9,849.61	76.9703	9,849.61	60.8348	9,849.61	79.4335
10,196.8	86.0704	10,196.8	76.8751	10,196.8	60.0789	10,196.8	79.6726
10,555.7	86.3881	10,555.7	76.4309	10,555.7	59.64	10,555.7	79.8831
10,927.7	86.6655	10,927.7	76.1392	10,927.7	59.612	10,927.7	80.0915
11,313	86.758	11,313	76.0703	11,313	59.8042	11,313	80.1668
11,712.9	86.9447	11,712.9	76.2146	11,712.9	59.9063	11,712.9	80.3485
12,126	86.8996	12,126	76.2399	12,126	59.9036	12,126	80.3112
12,553.7	86.7156	12,553.7	76.4913	12,553.7	60.1598	12,553.7	80.179
12,996.1	86.7206	12,996.1	76.7965	12,996.1	60.44	12,996.1	80.2222
13,454.6	86.6261	13,454.6	76.9759	13,454.6	60.2473	13,454.6	80.1627
13,929.2	86.5079	13,929.2	76.921	13,929.2	59.6608	13,929.2	80.0506
14,419.9	86.3783	14,419.9	76.6183	14,419.9	59.0189	14,419.9	79.8957
14,928.2	86.4909	14,928.2	76.6132	14,928.2	58.204	14,928.2	79.9895
15,455.6	86.2497	15,455.6	75.2203	15,455.6	55.304	15,455.6	79.6099
16,000.5	85.2908	16,000.5	72.9734	16,000.5	52.484	16,000.5	78.5339
16,564.5	81.3795	16,564.5	74.2727	16,564.5	55.0805	16,564.5	75.3547
17,148.9	87.0813	17,148.9	74.047	17,148.9	50.3428	17,148.9	80.2697
17,752.4	86.0395	17,752.4	68.4418	17,752.4	48.1398	17,752.4	79.0358
18,379.4	84.8756	18,379.4	64.9386	18,379.4	51.6701	18,379.4	77.8316
19,026.9	83.7586	19,026.9	65.5524	19,026.9	53.0103	19,026.9	76.749
19,697.8	82.6783	19,697.8	66.9382	19,697.8	53.0902	19,697.8	75.7411
19,999.5	82.2297	19,999.5	67.3062	19,999.5	53.9586	19,999.5	75.3296
