* Freq[Hz]      Mag   Phase[Deg]
5.00000   -642.054     0.000
5.07273   -631.754     0.000
5.14651   -621.451     0.000
5.22137   -611.150     0.000
5.29732   -600.849     0.000
5.37437   -590.548     0.000
5.45254   -580.246     0.000
5.53185   -569.944     0.000
5.61231   -559.643     0.000
5.69394   -549.342     0.000
5.77676   -539.040     0.000
5.86079   -528.739     0.000
5.94604   -518.439     0.000
6.03252   -508.136     0.000
6.12027   -497.835     0.000
6.20929   -487.534     0.000
6.29961   -477.233     0.000
6.39124   -466.932     0.000
6.48420   -456.630     0.000
6.57851   -446.328     0.000
6.67420   -436.027     0.000
6.77128   -425.725     0.000
6.86977   -415.424     0.000
6.96969   -405.123     0.000
7.07107   -394.821     0.000
7.17392   -384.520     0.000
7.27827   -374.219     0.000
7.38413   -363.917     0.000
7.49154   -353.617     0.000
7.60050   -343.315     0.000
7.71105   -333.013     0.000
7.82321   -322.712     0.000
7.93701   -312.412     0.000
8.05245   -302.109     0.000
8.16958   -291.808     0.000
8.28841   -281.506     0.000
8.40896   -271.205     0.000
8.53128   -260.904     0.000
8.65537   -250.602     0.000
8.78126   -240.301     0.000
8.90899   -230.000     0.000
9.03857   -219.698     0.000
9.17004   -209.397     0.000
9.30342   -199.096     0.000
9.43874   -188.794     0.000
9.57603   -178.493     0.000
9.71532   -168.192     0.000
9.85663   -157.890     0.000
10.0000   -147.589     0.000
10.1455   -147.589     0.000
10.2930   -113.625     0.000
10.4427      3.400     0.000
10.5946     47.412     0.000
10.7487     46.935     0.000
10.9051     45.549     0.000
11.0637     43.766     0.000
11.2246     41.397     0.000
11.3879     38.617     0.000
11.5535     36.284     0.000
11.7216     35.058     0.000
11.8921     35.445     0.000
12.0650     36.632     0.000
12.2405     38.614     0.000
12.4186     39.455     0.000
12.5992     39.765     0.000
12.7825     39.544     0.000
12.9684     38.649     0.000
13.1570     37.068     0.000
13.3484     35.467     0.000
13.5426     34.165     0.000
13.7395     33.533     0.000
13.9394     34.529     0.000
14.1421     35.338     0.000
14.3478     35.704     0.000
14.5565     35.453     0.000
14.7683     34.599     0.000
14.9831     34.678     0.000
15.2010     36.117     0.000
15.4221     38.991     0.000
15.6464     41.784     0.000
15.8740     44.001     0.000
16.1049     45.643     0.000
16.3392     46.720     0.000
16.5768     47.298     0.000
16.8179     47.388     0.000
17.0626     46.981     0.000
17.3107     46.047     0.000
17.5625     44.513     0.000
17.8180     42.290     0.000
18.0771     39.393     0.000
18.3401     36.520     0.000
18.6068     35.116     0.000
18.8775     35.569     0.000
19.1521     36.472     0.000
19.4306     36.989     0.000
19.7133     37.237     0.000
20.0000     37.719     0.000
20.2909     38.838     0.000
20.5860     40.145     0.000
20.8855     41.268     0.000
21.1893     41.962     0.000
21.4975     42.142     0.000
21.8102     41.674     0.000
22.1274     40.561     0.000
22.4492     38.746     0.000
22.7758     36.226     0.000
23.1071     35.053     0.000
23.4432     36.462     0.000
23.7841     39.055     0.000
24.1301     41.277     0.000
24.4811     43.147     0.000
24.8372     45.123     0.000
25.1984     47.322     0.000
25.5649     49.427     0.000
25.9368     51.106     0.000
26.3141     52.129     0.000
26.6968     52.418     0.000
27.0851     51.964     0.000
27.4791     50.936     0.000
27.8788     49.835     0.000
28.2843     49.230     0.000
28.6957     49.478     0.000
29.1131     50.907     0.000
29.5365     53.621     0.000
29.9661     56.756     0.000
30.4020     59.189     0.000
30.8442     60.629     0.000
31.2929     61.092     0.000
31.7480     61.019     0.000
32.2098     61.646     0.000
32.6783     63.523     0.000
33.1536     65.547     0.000
33.6359     66.881     0.000
34.1251     67.555     0.000
34.6215     68.199     0.000
35.1250     69.499     0.000
35.6359     71.239     0.000
36.1543     72.787     0.000
36.6802     73.924     0.000
37.2137     74.827     0.000
37.7550     75.718     0.000
38.3041     76.614     0.000
38.8613     77.390     0.000
39.4265     77.991     0.000
40.0000     78.448     0.000
40.5818     78.778     0.000
41.1721     79.009     0.000
41.7710     79.232     0.000
42.3785     79.541     0.000
42.9949     79.854     0.000
43.6203     80.032     0.000
44.2548     80.148     0.000
44.8985     80.385     0.000
45.5515     80.690     0.000
46.2141     80.856     0.000
46.8863     80.845     0.000
47.5683     80.806     0.000
48.2602     80.790     0.000
48.9621     80.717     0.000
49.6743     80.617     0.000
50.3968     80.653     0.000
51.1299     80.835     0.000
51.8736     80.996     0.000
52.6281     81.071     0.000
53.3936     81.113     0.000
54.1702     81.107     0.000
54.9581     81.025     0.000
55.7575     80.935     0.000
56.5685     80.892     0.000
57.3914     80.877     0.000
58.2261     80.878     0.000
59.0730     80.935     0.000
59.9323     81.028     0.000
60.8040     81.056     0.000
61.6884     81.021     0.000
62.5857     81.012     0.000
63.4960     81.032     0.000
64.4196     81.062     0.000
65.3566     81.142     0.000
66.3073     81.247     0.000
67.2717     81.311     0.000
68.2502     81.378     0.000
69.2429     81.425     0.000
70.2501     81.405     0.000
71.2719     81.395     0.000
72.3086     81.446     0.000
73.3603     81.474     0.000
74.4274     81.475     0.000
75.5099     81.484     0.000
76.6083     81.456     0.000
77.7226     81.400     0.000
78.8531     81.381     0.000
80.0000     81.459     0.000
81.1636     81.556     0.000
82.3442     81.605     0.000
83.5419     81.612     0.000
84.7570     81.613     0.000
85.9899     81.627     0.000
87.2406     81.655     0.000
88.5096     81.705     0.000
89.7970     81.778     0.000
91.1031     81.877     0.000
92.4282     81.935     0.000
93.7726     81.908     0.000
95.1366     81.794     0.000
96.5204     81.721     0.000
97.9243     81.694     0.000
99.3486     81.633     0.000
100.794     81.574     0.000
102.260     81.558     0.000
103.747     81.598     0.000
105.256     81.647     0.000
106.787     81.673     0.000
108.340     81.656     0.000
109.916     81.643     0.000
111.515     81.660     0.000
113.137     81.659     0.000
114.783     81.642     0.000
116.452     81.617     0.000
118.146     81.588     0.000
119.865     81.552     0.000
121.608     81.517     0.000
123.377     81.495     0.000
125.171     81.469     0.000
126.992     81.454     0.000
128.839     81.457     0.000
130.713     81.458     0.000
132.615     81.437     0.000
134.543     81.406     0.000
136.500     81.358     0.000
138.486     81.284     0.000
140.500     81.230     0.000
142.544     81.242     0.000
144.617     81.264     0.000
146.721     81.222     0.000
148.855     81.166     0.000
151.020     81.160     0.000
153.217     81.179     0.000
155.445     81.169     0.000
157.706     81.132     0.000
160.000     81.099     0.000
162.327     81.084     0.000
164.688     81.080     0.000
167.084     81.054     0.000
169.514     81.039     0.000
171.980     81.078     0.000
174.481     81.093     0.000
177.019     81.055     0.000
179.594     81.024     0.000
182.206     81.020     0.000
184.856     81.015     0.000
187.545     81.013     0.000
190.273     81.007     0.000
193.041     80.987     0.000
195.849     80.963     0.000
198.697     80.934     0.000
201.587     80.931     0.000
204.520     80.946     0.000
207.494     80.959     0.000
210.512     80.957     0.000
213.574     80.948     0.000
216.681     80.969     0.000
219.833     80.997     0.000
223.030     81.014     0.000
226.274     81.032     0.000
229.565     81.067     0.000
232.905     81.109     0.000
236.292     81.124     0.000
239.729     81.109     0.000
243.216     81.056     0.000
246.754     81.016     0.000
250.343     81.006     0.000
253.984     81.023     0.000
257.678     81.016     0.000
261.426     80.990     0.000
265.229     80.959     0.000
269.087     80.964     0.000
273.001     80.968     0.000
276.972     80.981     0.000
281.000     80.991     0.000
285.088     81.020     0.000
289.234     81.085     0.000
293.441     81.167     0.000
297.709     81.261     0.000
302.040     81.359     0.000
306.433     81.467     0.000
310.890     81.579     0.000
315.412     81.687     0.000
320.000     81.791     0.000
324.655     81.892     0.000
329.377     81.986     0.000
334.168     82.080     0.000
339.028     82.164     0.000
343.959     82.238     0.000
348.962     82.301     0.000
354.038     82.353     0.000
359.188     82.390     0.000
364.412     82.414     0.000
369.713     82.426     0.000
375.090     82.426     0.000
380.546     82.413     0.000
386.081     82.391     0.000
391.697     82.359     0.000
397.394     82.320     0.000
403.175     82.277     0.000
409.039     82.229     0.000
414.989     82.180     0.000
421.025     82.138     0.000
427.149     82.102     0.000
433.362     82.074     0.000
439.665     82.057     0.000
446.060     82.050     0.000
452.548     82.055     0.000
459.131     82.074     0.000
465.809     82.110     0.000
472.584     82.156     0.000
479.458     82.210     0.000
486.432     82.268     0.000
493.507     82.326     0.000
500.686     82.372     0.000
507.968     82.407     0.000
515.357     82.431     0.000
522.853     82.441     0.000
530.458     82.430     0.000
538.174     82.395     0.000
546.002     82.335     0.000
553.943     82.252     0.000
562.001     82.144     0.000
570.175     82.015     0.000
578.469     81.867     0.000
586.883     81.705     0.000
595.419     81.540     0.000
604.080     81.380     0.000
612.866     81.240     0.000
621.780     81.140     0.000
630.824     81.090     0.000
640.000     81.098     0.000
649.309     81.165     0.000
658.753     81.296     0.000
668.335     81.475     0.000
678.056     81.671     0.000
687.919     81.868     0.000
697.925     82.045     0.000
708.077     82.188     0.000
718.376     82.287     0.000
728.825     82.326     0.000
739.426     82.303     0.000
750.181     82.221     0.000
761.093     82.095     0.000
772.163     81.940     0.000
783.394     81.766     0.000
794.789     81.600     0.000
806.349     81.459     0.000
818.078     81.344     0.000
829.977     81.266     0.000
842.050     81.218     0.000
854.298     81.188     0.000
866.724     81.170     0.000
879.330     81.163     0.000
892.120     81.174     0.000
905.097     81.200     0.000
918.262     81.250     0.000
931.618     81.322     0.000
945.169     81.400     0.000
958.917     81.451     0.000
972.864     81.456     0.000
987.015     81.386     0.000
1001.37     81.229     0.000
1015.94     81.009     0.000
1030.71     80.761     0.000
1045.71     80.537     0.000
1060.92     80.393     0.000
1076.35     80.362     0.000
1092.00     80.421     0.000
1107.89     80.528     0.000
1124.00     80.648     0.000
1140.35     80.753     0.000
1156.94     80.864     0.000
1173.77     81.003     0.000
1190.84     81.173     0.000
1208.16     81.351     0.000
1225.73     81.469     0.000
1243.56     81.490     0.000
1261.65     81.391     0.000
1280.00     81.223     0.000
1298.62     81.057     0.000
1317.51     80.977     0.000
1336.67     80.985     0.000
1356.11     81.018     0.000
1375.84     80.990     0.000
1395.85     80.887     0.000
1416.15     80.792     0.000
1436.75     80.821     0.000
1457.65     81.000     0.000
1478.85     81.197     0.000
1500.36     81.232     0.000
1522.19     81.044     0.000
1544.33     80.724     0.000
1566.79     80.502     0.000
1589.58     80.535     0.000
1612.70     80.736     0.000
1636.16     80.857     0.000
1659.95     80.808     0.000
1684.10     80.703     0.000
1708.60     80.738     0.000
1733.45     80.924     0.000
1758.66     81.044     0.000
1784.24     80.954     0.000
1810.19     80.756     0.000
1836.52     80.727     0.000
1863.24     80.931     0.000
1890.34     81.127     0.000
1917.83     81.088     0.000
1945.73     80.907     0.000
1974.03     80.923     0.000
2002.74     81.226     0.000
2031.87     81.531     0.000
2061.43     81.595     0.000
2091.41     81.417     0.000
2121.83     81.186     0.000
2152.69     81.055     0.000
2184.01     81.084     0.000
2215.77     81.261     0.000
2248.00     81.491     0.000
2280.70     81.559     0.000
2313.87     81.371     0.000
2347.53     81.099     0.000
2381.68     81.058     0.000
2416.32     81.404     0.000
2451.46     81.858     0.000
2487.12     81.959     0.000
2523.30     81.541     0.000
2560.00     81.068     0.000
2597.24     81.115     0.000
2635.01     81.382     0.000
2673.34     81.372     0.000
2712.23     81.276     0.000
2751.68     81.279     0.000
2791.70     81.066     0.000
2832.31     80.683     0.000
2873.50     80.601     0.000
2915.30     80.745     0.000
2957.70     80.995     0.000
3000.72     81.439     0.000
3044.37     81.619     0.000
3088.65     81.420     0.000
3133.58     81.425     0.000
3179.16     81.595     0.000
3225.40     81.781     0.000
3272.31     82.129     0.000
3319.91     82.070     0.000
3368.20     81.506     0.000
3417.19     81.228     0.000
3466.89     81.302     0.000
3517.32     81.439     0.000
3568.48     81.315     0.000
3620.39     80.770     0.000
3673.05     80.617     0.000
3726.47     80.903     0.000
3780.67     81.006     0.000
3835.67     80.762     0.000
3891.46     80.562     0.000
3948.06     81.138     0.000
4005.49     81.660     0.000
4063.75     81.545     0.000
4122.86     81.266     0.000
4182.82     81.457     0.000
4243.66     81.787     0.000
4305.39     81.160     0.000
4368.01     80.778     0.000
4431.55     81.283     0.000
4496.01     81.212     0.000
4561.40     80.542     0.000
4627.75     79.321     0.000
4695.06     79.322     0.000
4763.35     79.764     0.000
4832.64     79.454     0.000
4902.93     79.703     0.000
4974.24     80.121     0.000
5046.60     80.161     0.000
5120.00     79.725     0.000
5194.47     80.151     0.000
5270.03     80.371     0.000
5346.68     79.997     0.000
5424.45     80.003     0.000
5503.35     80.095     0.000
5583.40     80.284     0.000
5664.61     81.176     0.000
5747.01     81.309     0.000
5830.60     81.510     0.000
5915.41     81.879     0.000
6001.45     81.758     0.000
6088.74     81.403     0.000
6177.30     81.654     0.000
6267.15     81.210     0.000
6358.31     80.731     0.000
6450.80     80.601     0.000
6544.62     80.164     0.000
6639.82     80.051     0.000
6736.40     79.829     0.000
6834.38     80.133     0.000
6933.79     80.182     0.000
7034.64     80.605     0.000
7136.96     80.487     0.000
7240.77     80.407     0.000
7346.09     80.266     0.000
7452.94     79.706     0.000
7561.35     79.489     0.000
7671.33     79.590     0.000
7782.91     79.814     0.000
7896.12     80.286     0.000
8010.97     80.126     0.000
8127.49     80.399     0.000
8245.71     79.937     0.000
8365.65     80.228     0.000
8487.33     80.112     0.000
8610.78     80.219     0.000
8736.03     80.489     0.000
8863.09     80.704     0.000
8992.01     80.795     0.000
9122.80     80.841     0.000
9255.50     80.860     0.000
9390.12     80.940     0.000
9526.70     80.554     0.000
9665.27     80.126     0.000
9805.86     80.000     0.000
9948.49     80.266     0.000
10093.2     80.712     0.000
10240.0     80.972     0.000
10388.9     80.965     0.000
10540.1     80.843     0.000
10693.4     80.372     0.000
10848.9     80.349     0.000
11006.7     80.479     0.000
11166.8     80.713     0.000
11329.2     81.120     0.000
11494.0     81.166     0.000
11661.2     81.386     0.000
11830.8     81.272     0.000
12002.9     81.493     0.000
12177.5     81.414     0.000
12354.6     81.686     0.000
12534.3     81.869     0.000
12716.6     81.818     0.000
12901.6     81.686     0.000
13089.2     81.055     0.000
13279.6     80.343     0.000
13472.8     80.291     0.000
13668.8     80.398     0.000
13867.6     80.959     0.000
14069.3     81.415     0.000
14273.9     81.508     0.000
14481.5     81.112     0.000
14692.2     80.724     0.000
14905.9     80.465     0.000
15122.7     80.123     0.000
15342.7     80.183     0.000
15565.8     80.397     0.000
15792.2     80.887     0.000
16021.9     80.541     0.000
16255.0     79.557     0.000
16491.4     79.167     0.000
16731.3     79.902     0.000
16974.7     80.340     0.000
17221.6     80.213     0.000
17472.1     80.016     0.000
17726.2     80.416     0.000
17984.0     81.080     0.000
18245.6     81.235     0.000
18511.0     81.142     0.000
18780.2     81.199     0.000
19053.4     81.801     0.000
19330.5     81.361     0.000
19611.7     81.731     0.000
19897.0     82.880     0.000
20186.4     83.573     0.000
20480.0     83.905     0.000
20777.9     85.173     0.000
21080.1     86.719     0.000
21386.7     86.449     0.000
21697.8     86.283     0.000
22013.4     87.596     0.000
22333.6     88.152     0.000
22658.4     87.867     0.000
22988.0     87.827     0.000
23322.4     87.311     0.000
23661.6     84.002     0.000
24005.8     84.002     0.000
24355.0     84.002     0.000
24709.2     84.002     0.000
25068.6     84.002     0.000
25433.2     84.002     0.000
25803.2     84.002     0.000
26178.5     84.002     0.000
26559.3     84.002     0.000
26945.6     84.002     0.000
27337.5     84.002     0.000
27735.2     84.002     0.000
28138.6     84.002     0.000
28547.9     84.002     0.000
28963.1     84.002     0.000
29384.4     84.002     0.000
29811.8     84.002     0.000
30245.4     84.002     0.000
30685.3     84.002     0.000
31131.7     84.002     0.000
31584.5     84.002     0.000
32043.9     84.002     0.000
32510.0     84.002     0.000
32982.8     84.002     0.000
33462.6     84.002     0.000
33949.3     84.002     0.000
34443.1     84.002     0.000
34944.1     84.002     0.000
35452.4     84.002     0.000
35968.0     84.002     0.000
36491.2     84.002     0.000
37022.0     84.002     0.000
37560.5     84.002     0.000
38106.8     84.002     0.000
38661.1     84.002     0.000
39223.4     84.002     0.000
39793.9     84.002     0.000
