"SPL Vertical"																																																																							
"On-Axis"		"10°"		"-10°"		"20°"		"-20°"		"30°"		"-30°"		"40°"		"-40°"		"50°"		"-50°"		"60°"		"-60°"		"70°"		"-70°"		"80°"		"-80°"		"90°"		"-90°"		"100°"		"-100°"		"110°"		"-110°"		"120°"		"-120°"		"130°"		"-130°"		"140°"		"-140°"		"150°"		"-150°"		"160°"		"-160°"		"170°"		"-170°"		"180°"	
"Frequency [Hz]"	"Sound Pessure Level [dB]    /[0.3V at 1m]"	"Frequency [Hz]"	"Sound Pessure Level [dB]    /[0.3V at 1m]"	"Frequency [Hz]"	"Sound Pessure Level [dB]    /[0.3V at 1m]"	"Frequency [Hz]"	"Sound Pessure Level [dB]    /[0.3V at 1m]"	"Frequency [Hz]"	"Sound Pessure Level [dB]    /[0.3V at 1m]"	"Frequency [Hz]"	"Sound Pessure Level [dB]    /[0.3V at 1m]"	"Frequency [Hz]"	"Sound Pessure Level [dB]    /[0.3V at 1m]"	"Frequency [Hz]"	"Sound Pessure Level [dB]    /[0.3V at 1m]"	"Frequency [Hz]"	"Sound Pessure Level [dB]    /[0.3V at 1m]"	"Frequency [Hz]"	"Sound Pessure Level [dB]    /[0.3V at 1m]"	"Frequency [Hz]"	"Sound Pessure Level [dB]    /[0.3V at 1m]"	"Frequency [Hz]"	"Sound Pessure Level [dB]    /[0.3V at 1m]"	"Frequency [Hz]"	"Sound Pessure Level [dB]    /[0.3V at 1m]"	"Frequency [Hz]"	"Sound Pessure Level [dB]    /[0.3V at 1m]"	"Frequency [Hz]"	"Sound Pessure Level [dB]    /[0.3V at 1m]"	"Frequency [Hz]"	"Sound Pessure Level [dB]    /[0.3V at 1m]"	"Frequency [Hz]"	"Sound Pessure Level [dB]    /[0.3V at 1m]"	"Frequency [Hz]"	"Sound Pessure Level [dB]    /[0.3V at 1m]"	"Frequency [Hz]"	"Sound Pessure Level [dB]    /[0.3V at 1m]"	"Frequency [Hz]"	"Sound Pessure Level [dB]    /[0.3V at 1m]"	"Frequency [Hz]"	"Sound Pessure Level [dB]    /[0.3V at 1m]"	"Frequency [Hz]"	"Sound Pessure Level [dB]    /[0.3V at 1m]"	"Frequency [Hz]"	"Sound Pessure Level [dB]    /[0.3V at 1m]"	"Frequency [Hz]"	"Sound Pessure Level [dB]    /[0.3V at 1m]"	"Frequency [Hz]"	"Sound Pessure Level [dB]    /[0.3V at 1m]"	"Frequency [Hz]"	"Sound Pessure Level [dB]    /[0.3V at 1m]"	"Frequency [Hz]"	"Sound Pessure Level [dB]    /[0.3V at 1m]"	"Frequency [Hz]"	"Sound Pessure Level [dB]    /[0.3V at 1m]"	"Frequency [Hz]"	"Sound Pessure Level [dB]    /[0.3V at 1m]"	"Frequency [Hz]"	"Sound Pessure Level [dB]    /[0.3V at 1m]"	"Frequency [Hz]"	"Sound Pessure Level [dB]    /[0.3V at 1m]"	"Frequency [Hz]"	"Sound Pessure Level [dB]    /[0.3V at 1m]"	"Frequency [Hz]"	"Sound Pessure Level [dB]    /[0.3V at 1m]"	"Frequency [Hz]"	"Sound Pessure Level [dB]    /[0.3V at 1m]"	"Frequency [Hz]"	"Sound Pessure Level [dB]    /[0.3V at 1m]"	"Frequency [Hz]"	"Sound Pessure Level [dB]    /[0.3V at 1m]"
20.5078	36.1174	20.5078	36.1441	20.5078	36.1071	20.5078	36.1895	20.5078	36.1108	20.5078	36.2556	20.5078	36.1263	20.5078	36.3438	20.5078	36.1521	20.5078	36.4551	20.5078	36.1874	20.5078	36.589	20.5078	36.2327	20.5078	36.7443	20.5078	36.2897	20.5078	36.9179	20.5078	36.3617	20.5078	37.1052	20.5078	36.4523	20.5078	37.2994	20.5078	36.5655	20.5078	37.4921	20.5078	36.7041	20.5078	37.6732	20.5078	36.8687	20.5078	37.8316	20.5078	37.056	20.5078	37.9561	20.5078	37.2585	20.5078	38.0369	20.5078	37.4646	20.5078	38.0663	20.5078	37.6599	20.5078	38.0403	20.5078	37.8294	20.5078	37.9596
21.2402	40.7577	21.2402	40.7325	21.2402	40.796	21.2402	40.7223	21.2402	40.8454	21.2402	40.7288	21.2402	40.9038	21.2402	40.7536	21.2402	40.9693	21.2402	40.7976	21.2402	41.0402	21.2402	40.8613	21.2402	41.1153	21.2402	40.9447	21.2402	41.1937	21.2402	41.0467	21.2402	41.2751	21.2402	41.1652	21.2402	41.3598	21.2402	41.2966	21.2402	41.448	21.2402	41.4361	21.2402	41.5399	21.2402	41.5774	21.2402	41.6351	21.2402	41.713	21.2402	41.7315	21.2402	41.8351	21.2402	41.8257	21.2402	41.936	21.2402	41.9123	21.2402	42.0093	21.2402	41.9846	21.2402	42.0509	21.2402	42.0356	21.2402	42.0591
21.9727	41.2447	21.9727	41.1494	21.9727	41.3528	21.9727	41.07	21.9727	41.4701	21.9727	41.009	21.9727	41.5926	21.9727	40.9684	21.9727	41.7161	21.9727	40.9496	21.9727	41.836	21.9727	40.9531	21.9727	41.9478	21.9727	40.9788	21.9727	42.0471	21.9727	41.0254	21.9727	42.1297	21.9727	41.0909	21.9727	42.1926	21.9727	41.1723	21.9727	42.2337	21.9727	41.2659	21.9727	42.2522	21.9727	41.3673	21.9727	42.2491	21.9727	41.4721	21.9727	42.2267	21.9727	41.5761	21.9727	42.1883	21.9727	41.6762	21.9727	42.1375	21.9727	41.7701	21.9727	42.0774	21.9727	41.8569	21.9727	42.0103	21.9727	41.9368
22.7051	30.5515	22.7051	30.3822	22.7051	30.7458	22.7051	30.2417	22.7051	30.9601	22.7051	30.1333	22.7051	31.1883	22.7051	30.0597	22.7051	31.4231	22.7051	30.0236	22.7051	31.6564	22.7051	30.0274	22.7051	31.8799	22.7051	30.0737	22.7051	32.0856	22.7051	30.1637	22.7051	32.2667	22.7051	30.2976	22.7051	32.4182	22.7051	30.473	22.7051	32.537	22.7051	30.6847	22.7051	32.6224	22.7051	30.9246	22.7051	32.6747	22.7051	31.1819	22.7051	32.6951	22.7051	31.4442	22.7051	32.6848	22.7051	31.6991	22.7051	32.6436	22.7051	31.9356	22.7051	32.5705	22.7051	32.1451	22.7051	32.4638	22.7051	32.322
23.4375	32.1228	23.4375	31.9901	23.4375	32.232	23.4375	31.8399	23.4375	32.3134	23.4375	31.6797	23.4375	32.3642	23.4375	31.5185	23.4375	32.3833	23.4375	31.367	23.4375	32.3714	23.4375	31.2367	23.4375	32.3311	23.4375	31.1394	23.4375	32.2676	23.4375	31.0853	23.4375	32.1884	23.4375	31.0813	23.4375	32.1034	23.4375	31.1293	23.4375	32.0238	23.4375	31.2248	23.4375	31.9608	23.4375	31.3571	23.4375	31.923	23.4375	31.5107	23.4375	31.9147	23.4375	31.6678	23.4375	31.9332	23.4375	31.8108	23.4375	31.9695	23.4375	31.9252	23.4375	32.0094	23.4375	32.0019	23.4375	32.037	23.4375	32.0379
24.1699	40.8089	24.1699	40.7097	24.1699	40.905	24.1699	40.6101	24.1699	40.9952	24.1699	40.5127	24.1699	41.0768	24.1699	40.4205	24.1699	41.1472	24.1699	40.3362	24.1699	41.2037	24.1699	40.2629	24.1699	41.2441	24.1699	40.2035	24.1699	41.2667	24.1699	40.1608	24.1699	41.2703	24.1699	40.1369	24.1699	41.2548	24.1699	40.1334	24.1699	41.2211	24.1699	40.1505	24.1699	41.1711	24.1699	40.1871	24.1699	41.1079	24.1699	40.2404	24.1699	41.0351	24.1699	40.3069	24.1699	40.9564	24.1699	40.3822	24.1699	40.8748	24.1699	40.4626	24.1699	40.7924	24.1699	40.5449	24.1699	40.71	24.1699	40.6275
25.6348	33.5588	25.6348	33.3434	25.6348	33.6985	25.6348	33.0544	25.6348	33.759	25.6348	32.693	25.6348	33.7359	25.6348	32.2591	25.6348	33.6235	25.6348	31.7521	25.6348	33.415	25.6348	31.1707	25.6348	33.1029	25.6348	30.5136	25.6348	32.6783	25.6348	29.7801	25.6348	32.1321	25.6348	28.9709	25.6348	31.4546	25.6348	28.089	25.6348	30.6366	25.6348	27.1415	25.6348	29.6706	25.6348	26.1409	25.6348	28.5538	25.6348	25.1076	25.6348	27.2935	25.6348	24.0735	25.6348	25.9187	25.6348	23.0916	25.6348	24.499	25.6348	22.2526	25.6348	23.1707	25.6348	21.7042	25.6348	22.1435	25.6348	21.6303
26.3672	37.0566	26.3672	36.9967	26.3672	37.0841	26.3672	36.9102	26.3672	37.0754	26.3672	36.8045	26.3672	37.0284	26.3672	36.6885	26.3672	36.9436	26.3672	36.5727	26.3672	36.8244	26.3672	36.4686	26.3672	36.6779	26.3672	36.3879	26.3672	36.5162	26.3672	36.3413	26.3672	36.3559	26.3672	36.3364	26.3672	36.2179	26.3672	36.3761	26.3672	36.1242	26.3672	36.4573	26.3672	36.0931	26.3672	36.5703	26.3672	36.1336	26.3672	36.7002	26.3672	36.2412	26.3672	36.8287	26.3672	36.398	26.3672	36.9367	26.3672	36.5776	26.3672	37.0072	26.3672	36.7513	26.3672	37.027	26.3672	36.8944	26.3672	36.9893
27.0996	40.5623	27.0996	40.4254	27.0996	40.6652	27.0996	40.2586	27.0996	40.7307	27.0996	40.0667	27.0996	40.7558	27.0996	39.8556	27.0996	40.7383	27.0996	39.632	27.0996	40.6768	27.0996	39.4043	27.0996	40.5709	27.0996	39.1818	27.0996	40.4221	27.0996	38.9747	27.0996	40.234	27.0996	38.7933	27.0996	40.0134	27.0996	38.6462	27.0996	39.7706	27.0996	38.5391	27.0996	39.5194	27.0996	38.4729	27.0996	39.2764	27.0996	38.4435	27.0996	39.058	27.0996	38.4427	27.0996	38.8774	27.0996	38.4601	27.0996	38.7412	27.0996	38.4859	27.0996	38.6472	27.0996	38.5144	27.0996	38.5862	27.0996	38.5457
27.832	39.5791	27.832	39.4234	27.832	39.6784	27.832	39.216	27.832	39.7165	27.832	38.962	27.832	39.6889	27.832	38.6677	27.832	39.5914	27.832	38.3404	27.832	39.4201	27.832	37.9893	27.832	39.1723	27.832	37.6262	27.832	38.8474	27.832	37.2653	27.832	38.4485	27.832	36.9227	27.832	37.9845	27.832	36.6142	27.832	37.4732	27.832	36.353	27.832	36.943	27.832	36.1454	27.832	36.4343	27.832	35.9886	27.832	35.9942	27.832	35.8712	27.832	35.665	27.832	35.776	27.832	35.4688	27.832	35.6865	27.832	35.3984	27.832	35.5928	27.832	35.4218	27.832	35.498
29.2969	38.4941	29.2969	38.1851	29.2969	38.6848	29.2969	37.762	29.2969	38.7523	29.2969	37.23	29.2969	38.6905	29.2969	36.5986	29.2969	38.4912	29.2969	35.8868	29.2969	38.1448	29.2969	35.1322	29.2969	37.6412	29.2969	34.402	29.2969	36.9727	29.2969	33.7992	29.2969	36.1411	29.2969	33.4437	29.2969	35.173	29.2969	33.4167	29.2969	34.1501	29.2969	33.702	29.2969	33.2481	29.2969	34.193	29.2969	32.7259	29.2969	34.7543	29.2969	32.7676	29.2969	35.2733	29.2969	33.2953	29.2969	35.6735	29.2969	34.0465	29.2969	35.9071	29.2969	34.7853	29.2969	35.9449	29.2969	35.3785	29.2969	35.7702
30.0293	40.6152	30.0293	40.418	30.0293	40.7441	30.0293	40.1671	30.0293	40.7947	30.0293	39.8831	30.0293	40.7611	30.0293	39.5943	30.0293	40.6411	30.0293	39.3374	30.0293	40.4381	30.0293	39.1545	30.0293	40.1638	30.0293	39.0865	30.0293	39.8426	30.0293	39.161	30.0293	39.5163	30.0293	39.3814	30.0293	39.2463	30.0293	39.7245	30.0293	39.1044	30.0293	40.1471	30.0293	39.1494	30.0293	40.599	30.0293	39.3968	30.0293	41.0322	30.0293	39.8071	30.0293	41.407	30.0293	40.3048	30.0293	41.6926	30.0293	40.8095	30.0293	41.8665	30.0293	41.2568	30.0293	41.9136	30.0293	41.6037	30.0293	41.826
31.4941	43.9909	31.4941	43.809	31.4941	44.1009	31.4941	43.5663	31.4941	44.1307	31.4941	43.2778	31.4941	44.0743	31.4941	42.964	31.4941	43.9282	31.4941	42.6522	31.4941	43.6923	31.4941	42.3765	31.4941	43.3724	31.4941	42.1749	31.4941	42.9842	31.4941	42.0821	31.4941	42.5585	31.4941	42.1187	31.4941	42.1469	31.4941	42.2827	31.4941	41.8204	31.4941	42.5485	31.4941	41.6552	31.4941	42.8737	31.4941	41.7002	31.4941	43.2103	31.4941	41.9485	31.4941	43.5136	31.4941	42.3385	31.4941	43.7464	31.4941	42.7845	31.4941	43.8808	31.4941	43.2082	31.4941	43.8981	31.4941	43.554	31.4941	43.7888
32.2266	44.0508	32.2266	43.8569	32.2266	44.1623	32.2266	43.5935	32.2266	44.1821	32.2266	43.2786	32.2266	44.1035	32.2266	42.9374	32.2266	43.9227	32.2266	42.6043	32.2266	43.6405	32.2266	42.323	32.2266	43.2657	32.2266	42.1412	32.2266	42.8207	32.2266	42.0997	32.2266	42.3496	32.2266	42.2173	32.2266	41.9251	32.2266	42.4819	32.2266	41.643	32.2266	42.8534	32.2266	41.5917	32.2266	43.2772	32.2266	41.8042	32.2266	43.6981	32.2266	42.2332	32.2266	44.0692	32.2266	42.7788	32.2266	44.3537	32.2266	43.338	32.2266	44.5249	32.2266	43.8328	32.2266	44.5648	32.2266	44.2158	32.2266	44.4626
33.6914	44.7903	33.6914	44.5541	33.6914	44.944	33.6914	44.2593	33.6914	45.0013	33.6914	43.9437	33.6914	44.9565	33.6914	43.661	33.6914	44.8124	33.6914	43.4797	33.6914	44.584	33.6914	43.4693	33.6914	44.3041	33.6914	43.6753	33.6914	44.0315	33.6914	44.0972	33.6914	43.8523	33.6914	44.6875	33.6914	43.8633	33.6914	45.3744	33.6914	44.1305	33.6914	46.086	33.6914	44.6472	33.6914	46.7648	33.6914	45.3355	33.6914	47.3693	33.6914	46.0898	33.6914	47.8711	33.6914	46.818	33.6914	48.2508	33.6914	47.4562	33.6914	48.4949	33.6914	47.9669	33.6914	48.5935	33.6914	48.3308	33.6914	48.54
34.4238	46.2794	34.4238	46.0765	34.4238	46.4216	34.4238	45.8385	34.4238	46.4875	34.4238	45.6038	34.4238	46.4709	34.4238	45.4224	34.4238	46.3753	34.4238	45.3512	34.4238	46.216	34.4238	45.4402	34.4238	46.0252	34.4238	45.7136	34.4238	45.8551	34.4238	46.1595	34.4238	45.7763	34.4238	46.734	34.4238	45.8618	34.4238	47.3784	34.4238	46.1565	34.4238	48.0354	34.4238	46.6509	34.4238	48.6582	34.4238	47.2843	34.4238	49.2116	34.4238	47.9734	34.4238	49.6701	34.4238	48.6418	34.4238	50.0156	34.4238	49.2331	34.4238	50.2349	34.4238	49.7116	34.4238	50.3184	34.4238	50.0569	34.4238	50.26
35.8887	48.9454	35.8887	48.7855	35.8887	49.0615	35.8887	48.6083	35.8887	49.117	35.8887	48.4506	35.8887	49.1047	35.8887	48.3572	35.8887	49.0272	35.8887	48.3741	35.8887	48.8996	35.8887	48.5362	35.8887	48.7519	35.8887	48.8551	35.8887	48.6322	35.8887	49.3136	35.8887	48.6029	35.8887	49.8723	35.8887	48.7261	35.8887	50.4821	35.8887	49.0381	35.8887	51.0958	35.8887	49.5293	35.8887	51.6734	35.8887	50.1465	35.8887	52.1842	35.8887	50.8161	35.8887	52.6048	35.8887	51.4688	35.8887	52.9175	35.8887	52.0514	35.8887	53.1092	35.8887	52.5287	35.8887	53.1703	35.8887	52.8798	35.8887	53.0946
37.3535	51.387	37.3535	51.2344	37.3535	51.4939	37.3535	51.0598	37.3535	51.5399	37.3535	50.8961	37.3535	51.5182	37.3535	50.7834	37.3535	51.4311	37.3535	50.7643	37.3535	51.292	37.3535	50.8737	37.3535	51.1285	37.3535	51.128	37.3535	50.9856	37.3535	51.518	37.3535	50.9226	37.3535	52.0124	37.3535	51.0009	37.3535	52.5673	37.3535	51.2601	37.3535	53.1375	37.3535	51.6972	37.3535	53.6829	37.3535	52.265	37.3535	54.1711	37.3535	52.8933	37.3535	54.5771	37.3535	53.513	37.3535	54.882	37.3535	54.0697	37.3535	55.0715	37.3535	54.5268	37.3535	55.1353	37.3535	54.8627	37.3535	55.0665
38.8184	52.4174	38.8184	52.2396	38.8184	52.5406	38.8184	52.0343	38.8184	52.5931	38.8184	51.8402	38.8184	52.5684	38.8184	51.7065	38.8184	52.4708	38.8184	51.6863	38.8184	52.3174	38.8184	51.8226	38.8184	52.1428	38.8184	52.1325	38.8184	52.0017	38.8184	52.5993	38.8184	51.9648	38.8184	53.1793	38.8184	52.1006	38.8184	53.8176	38.8184	52.4444	38.8184	54.4617	38.8184	52.9773	38.8184	55.0686	38.8184	53.6344	38.8184	55.6059	38.8184	54.3341	38.8184	56.0502	38.8184	55.0044	38.8184	56.3842	38.8184	55.5932	38.8184	56.595	38.8184	56.068	38.8184	56.6733	38.8184	56.4106	38.8184	56.6128
39.5508	53.1726	39.5508	53.006	39.5508	53.2965	39.5508	52.8264	39.5508	53.3596	39.5508	52.6748	39.5508	53.3552	39.5508	52.601	39.5508	53.2879	39.5508	52.6543	39.5508	53.1767	39.5508	52.8686	39.5508	53.0577	39.5508	53.2492	39.5508	52.9852	39.5508	53.7705	39.5508	53.0251	39.5508	54.3856	39.5508	53.2354	39.5508	55.0418	39.5508	53.6386	39.5508	55.6913	39.5508	54.2084	39.5508	56.2961	39.5508	54.8807	39.5508	56.8278	39.5508	55.5804	39.5508	57.2655	39.5508	56.2428	39.5508	57.5937	39.5508	56.8212	39.5508	57.8006	39.5508	57.2862	39.5508	57.8777	39.5508	57.6212	39.5508	57.8188
41.0156	55.6481	41.0156	55.5307	41.0156	55.7385	41.0156	55.4131	41.0156	55.7845	41.0156	55.3308	41.0156	55.7794	41.0156	55.3234	41.0156	55.7272	41.0156	55.4277	41.0156	55.6452	41.0156	55.6663	41.0156	55.5658	41.0156	56.0402	41.0156	55.5364	41.0156	56.528	41.0156	55.6123	41.0156	57.0925	41.0156	55.8398	41.0156	57.6915	41.0156	56.2362	41.0156	58.2852	41.0156	56.7784	41.0156	58.8402	41.0156	57.4122	41.0156	59.3299	41.0156	58.0725	41.0156	59.7338	41.0156	58.7011	41.0156	60.036	41.0156	59.254	41.0156	60.2243	41.0156	59.7022	41.0156	60.2893	41.0156	60.0286	41.0156	60.225
42.4805	58.1289	42.4805	58.0144	42.4805	58.214	42.4805	57.8928	42.4805	58.2552	42.4805	57.7944	42.4805	58.247	42.4805	57.7544	42.4805	58.1934	42.4805	57.8071	42.4805	58.1093	42.4805	57.9777	42.4805	58.0229	42.4805	58.2743	42.4805	57.9748	42.4805	58.6844	42.4805	58.0139	42.4805	59.1788	42.4805	58.1836	42.4805	59.7195	42.4805	58.5053	42.4805	60.2677	42.4805	58.9662	42.4805	60.789	42.4805	59.5231	42.4805	61.255	42.4805	60.1182	42.4805	61.643	42.4805	60.6956	42.4805	61.9356	42.4805	61.2106	42.4805	62.1195	42.4805	61.6321	42.4805	62.185	42.4805	61.9406	42.4805	62.126
43.9453	59.735	43.9453	59.5961	43.9453	59.8375	43.9453	59.4437	43.9453	59.889	43.9453	59.3091	43.9453	59.8839	43.9453	59.2297	43.9453	59.8252	43.9453	59.2439	43.9453	59.7271	43.9453	59.3814	43.9453	59.6168	43.9453	59.6539	43.9453	59.5352	43.9453	60.0505	43.9453	59.5333	43.9453	60.5408	43.9453	59.6601	43.9453	61.084	43.9453	59.9435	43.9453	61.6383	43.9453	60.3759	43.9453	62.1668	43.9453	60.9157	43.9453	62.6392	43.9453	61.5032	43.9453	63.0324	43.9453	62.0793	43.9453	63.3285	43.9453	62.5962	43.9453	63.5141	43.9453	63.0207	43.9453	63.5798	43.9453	63.3321	43.9453	63.5197
45.4102	61.4056	45.4102	61.2892	45.4102	61.4936	45.4102	61.168	45.4102	61.5381	45.4102	61.0736	45.4102	61.5327	45.4102	61.0416	45.4102	61.4809	45.4102	61.1066	45.4102	61.3977	45.4102	61.2925	45.4102	61.3112	45.4102	61.6048	45.4102	61.2627	45.4102	62.0285	45.4102	61.3019	45.4102	62.5325	45.4102	61.4732	45.4102	63.078	45.4102	61.7981	45.4102	63.6266	45.4102	62.2632	45.4102	64.1446	45.4102	62.8244	45.4102	64.6048	45.4102	63.423	45.4102	64.9857	45.4102	64.0031	45.4102	65.2709	45.4102	64.5201	45.4102	65.4478	45.4102	64.9436	45.4102	65.5072	45.4102	65.2546	45.4102	65.4435
47.6074	64.8419	47.6074	64.7465	47.6074	64.9103	47.6074	64.6403	47.6074	64.9408	47.6074	64.5452	47.6074	64.929	47.6074	64.4863	47.6074	64.8773	47.6074	64.4894	47.6074	64.7962	47.6074	64.576	47.6074	64.7053	47.6074	64.7576	47.6074	64.6339	47.6074	65.0325	47.6074	64.6181	47.6074	65.3851	47.6074	64.6938	47.6074	65.7902	47.6074	64.8851	47.6074	66.2173	47.6074	65.1938	47.6074	66.636	47.6074	65.5968	47.6074	67.0189	47.6074	66.0533	47.6074	67.3428	47.6074	66.5166	47.6074	67.5889	47.6074	66.9444	47.6074	67.7429	47.6074	67.3039	47.6074	67.7946	47.6074	67.5728	47.6074	67.7381
49.0723	66.8966	49.0723	66.7822	49.0723	66.9757	49.0723	66.6491	49.0723	67.0088	49.0723	66.52	49.0723	66.9918	49.0723	66.4221	49.0723	66.9272	49.0723	66.3848	49.0723	66.8261	49.0723	66.4342	49.0723	66.7091	49.0723	66.5866	49.0723	66.608	49.0723	66.8438	49.0723	66.5626	49.0723	67.1913	49.0723	66.6137	49.0723	67.6022	49.0723	66.79	49.0723	68.0435	49.0723	67.0952	49.0723	68.4815	49.0723	67.5045	49.0723	68.8859	49.0723	67.9728	49.0723	69.2312	49.0723	68.4492	49.0723	69.4972	49.0723	68.8878	49.0723	69.6682	49.0723	69.2538	49.0723	69.7331	49.0723	69.524	49.0723	69.6855
50.5371	68.2668	50.5371	68.1394	50.5371	68.3573	50.5371	67.9905	50.5371	68.4013	50.5371	67.8413	50.5371	68.3952	50.5371	67.7182	50.5371	68.3416	50.5371	67.6503	50.5371	68.2504	50.5371	67.665	50.5371	68.1404	50.5371	67.7811	50.5371	68.0397	50.5371	68.0035	50.5371	67.9843	50.5371	68.3205	50.5371	68.0117	50.5371	68.7069	50.5371	68.15	50.5371	69.13	50.5371	68.4065	50.5371	69.5554	50.5371	68.7631	50.5371	69.9518	50.5371	69.1814	50.5371	70.2927	50.5371	69.6146	50.5371	70.5573	50.5371	70.0187	50.5371	70.7296	50.5371	70.3588	50.5371	70.7989	50.5371	70.6105	50.5371	70.7593
52.7344	69.7228	52.7344	69.6016	52.7344	69.812	52.7344	69.4648	52.7344	69.858	52.7344	69.335	52.7344	69.8562	52.7344	69.2388	52.7344	69.8083	52.7344	69.2044	52.7344	69.7236	52.7344	69.2565	52.7344	69.6209	52.7344	69.41	52.7344	69.5286	52.7344	69.6651	52.7344	69.4834	52.7344	70.0071	52.7344	69.5236	52.7344	70.4092	52.7344	69.6778	52.7344	70.8391	52.7344	69.9527	52.7344	71.2643	52.7344	70.3288	52.7344	71.6555	52.7344	70.7659	52.7344	71.9882	52.7344	71.2164	52.7344	72.2428	52.7344	71.6357	52.7344	72.4046	52.7344	71.989	52.7344	72.4631	52.7344	72.2527	52.7344	72.4126
54.1992	71.0558	54.1992	70.9475	54.1992	71.1367	54.1992	70.8268	54.1992	71.1806	54.1992	70.7135	54.1992	71.1834	54.1992	70.6312	54.1992	71.1473	54.1992	70.6047	54.1992	71.0812	54.1992	70.6556	54.1992	71.0025	54.1992	70.7975	54.1992	70.9365	54.1992	71.0317	54.1992	70.9151	54.1992	71.3462	54.1992	70.9706	54.1992	71.7181	54.1992	71.1262	54.1992	72.1187	54.1992	71.3867	54.1992	72.5182	54.1992	71.7349	54.1992	72.8889	54.1992	72.1362	54.1992	73.207	54.1992	72.5486	54.1992	73.4533	54.1992	72.9323	54.1992	73.6131	54.1992	73.255	54.1992	73.6761	54.1992	73.4943	54.1992	73.6366
56.3965	72.6333	56.3965	72.5383	56.3965	72.7058	56.3965	72.434	56.3965	72.7472	56.3965	72.3377	56.3965	72.7536	56.3965	72.2693	56.3965	72.7266	56.3965	72.2498	56.3965	72.6738	56.3965	72.297	56.3965	72.6099	56.3965	72.4227	56.3965	72.5563	56.3965	72.6283	56.3965	72.5399	56.3965	72.9046	56.3965	72.5879	56.3965	73.2331	56.3965	72.721	56.3965	73.5895	56.3965	72.9449	56.3965	73.9475	56.3965	73.2472	56.3965	74.2819	56.3965	73.6001	56.3965	74.5705	56.3965	73.9673	56.3965	74.7946	56.3965	74.313	56.3965	74.9399	56.3965	74.6068	56.3965	74.9964	56.3965	74.8266	56.3965	74.9586
58.5938	74.0883	58.5938	74.0036	58.5938	74.1526	58.5938	73.9098	58.5938	74.1889	58.5938	73.8215	58.5938	74.1941	58.5938	73.756	58.5938	74.1695	58.5938	73.7313	58.5938	74.1219	58.5938	73.7633	58.5938	74.0641	58.5938	73.8631	58.5938	74.0144	58.5938	74.0337	58.5938	73.9959	58.5938	74.269	58.5938	74.0322	58.5938	74.5542	58.5938	74.1417	58.5938	74.8687	58.5938	74.3309	58.5938	75.1891	58.5938	74.5911	58.5938	75.4919	58.5938	74.8993	58.5938	75.7557	58.5938	75.2245	58.5938	75.9624	58.5938	75.5339	58.5938	76.0975	58.5938	75.7991	58.5938	76.1511	58.5938	75.9984	58.5938	76.118
60.0586	74.9014	60.0586	74.8201	60.0586	74.9636	60.0586	74.7303	60.0586	75	60.0586	74.6452	60.0586	75.0074	60.0586	74.5806	60.0586	74.987	60.0586	74.5527	60.0586	74.9449	60.0586	74.5764	60.0586	74.8925	60.0586	74.6618	60.0586	74.8463	60.0586	74.8126	60.0586	74.8269	60.0586	75.024	60.0586	74.8559	60.0586	75.2833	60.0586	74.9502	60.0586	75.5721	60.0586	75.1169	60.0586	75.8687	60.0586	75.3492	60.0586	76.1512	60.0586	75.6275	60.0586	76.3989	60.0586	75.9237	60.0586	76.5942	60.0586	76.2077	60.0586	76.723	60.0586	76.4523	60.0586	76.7755	60.0586	76.6365	60.0586	76.7465
62.2559	75.8885	62.2559	75.816	62.2559	75.946	62.2559	75.7379	62.2559	75.9824	62.2559	75.666	62.2559	75.9948	62.2559	75.6139	62.2559	75.9843	62.2559	75.596	62.2559	75.9563	62.2559	75.6246	62.2559	75.9207	62.2559	75.7086	62.2559	75.892	62.2559	75.8509	62.2559	75.8878	62.2559	76.0474	62.2559	75.9262	62.2559	76.2872	62.2559	76.0214	62.2559	76.5541	62.2559	76.179	62.2559	76.829	62.2559	76.3934	62.2559	77.0918	62.2559	76.6474	62.2559	77.3235	62.2559	76.9168	62.2559	77.5076	62.2559	77.1746	62.2559	77.6306	62.2559	77.3963	62.2559	77.6832	62.2559	77.5626	62.2559	77.6603
64.4531	76.7767	64.4531	76.713	64.4531	76.8279	64.4531	76.6445	64.4531	76.8612	64.4531	76.5812	64.4531	76.8743	64.4531	76.5345	64.4531	76.8681	64.4531	76.5163	64.4531	76.847	64.4531	76.5372	64.4531	76.8195	64.4531	76.6052	64.4531	76.7975	64.4531	76.7232	64.4531	76.7956	64.4531	76.8889	64.4531	76.8288	64.4531	77.0939	64.4531	76.9091	64.4531	77.325	64.4531	77.0421	64.4531	77.5658	64.4531	77.2237	64.4531	77.7985	64.4531	77.4405	64.4531	78.0059	64.4531	77.6722	64.4531	78.1724	64.4531	77.8956	64.4531	78.2852	64.4531	78.0887	64.4531	78.3352	64.4531	78.2336	64.4531	78.3178
66.6504	77.6916	66.6504	77.6326	66.6504	77.7404	66.6504	77.5701	66.6504	77.7745	66.6504	77.5125	66.6504	77.7918	66.6504	77.4696	66.6504	77.7929	66.6504	77.4514	66.6504	77.7815	66.6504	77.4672	66.6504	77.7645	66.6504	77.5238	66.6504	77.7516	66.6504	77.6245	66.6504	77.7548	66.6504	77.7678	66.6504	77.7866	66.6504	77.9472	66.6504	77.8571	66.6504	78.1515	66.6504	77.9712	66.6504	78.3668	66.6504	78.1263	66.6504	78.577	66.6504	78.3119	66.6504	78.7664	66.6504	78.5111	66.6504	78.9203	66.6504	78.704	66.6504	79.0266	66.6504	78.871	66.6504	79.0767	66.6504	78.9956	66.6504	79.0661
69.5801	78.7028	69.5801	78.6498	69.5801	78.7493	69.5801	78.5961	69.5801	78.7855	69.5801	78.5486	69.5801	78.8092	69.5801	78.5153	69.5801	78.8206	69.5801	78.5043	69.5801	78.8225	69.5801	78.523	69.5801	78.8199	69.5801	78.5767	69.5801	78.8203	69.5801	78.668	69.5801	78.8332	69.5801	78.7956	69.5801	78.8681	69.5801	78.9541	69.5801	78.9333	69.5801	79.1345	69.5801	79.0328	69.5801	79.3248	69.5801	79.1652	69.5801	79.5114	69.5801	79.3223	69.5801	79.6804	69.5801	79.4908	69.5801	79.8189	69.5801	79.6541	69.5801	79.9159	69.5801	79.7954	69.5801	79.9637	69.5801	79.9003	69.5801	79.9583
71.7773	79.5086	71.7773	79.465	71.7773	79.5481	71.7773	79.422	71.7773	79.5801	71.7773	79.3852	71.7773	79.6029	71.7773	79.361	71.7773	79.6164	71.7773	79.3558	71.7773	79.6225	71.7773	79.3754	71.7773	79.6253	71.7773	79.4241	71.7773	79.6307	71.7773	79.504	71.7773	79.646	71.7773	79.6142	71.7773	79.6792	71.7773	79.7504	71.7773	79.7369	71.7773	79.9053	71.7773	79.8229	71.7773	80.0692	71.7773	79.9362	71.7773	80.2304	71.7773	80.0706	71.7773	80.377	71.7773	80.215	71.7773	80.4976	71.7773	80.3556	71.7773	80.5823	71.7773	80.4779	71.7773	80.6241	71.7773	80.569	71.7773	80.6194
73.9746	80.2419	73.9746	80.2055	73.9746	80.2758	73.9746	80.1705	73.9746	80.3045	73.9746	80.1415	73.9746	80.3265	73.9746	80.1236	73.9746	80.3416	73.9746	80.122	73.9746	80.3513	73.9746	80.1415	73.9746	80.3587	73.9746	80.1855	73.9746	80.3685	73.9746	80.2559	73.9746	80.3868	73.9746	80.3521	73.9746	80.4197	73.9746	80.4708	73.9746	80.4728	73.9746	80.606	73.9746	80.5493	73.9746	80.7495	73.9746	80.6484	73.9746	80.8913	73.9746	80.7652	73.9746	81.021	73.9746	80.8905	73.9746	81.1283	73.9746	81.0125	73.9746	81.2044	73.9746	81.1186	73.9746	81.2428	73.9746	81.1973	73.9746	81.2403
76.9043	81.1617	76.9043	81.135	76.9043	81.1885	76.9043	81.1112	76.9043	81.2133	76.9043	81.0935	76.9043	81.235	76.9043	81.0858	76.9043	81.2533	76.9043	81.0916	76.9043	81.2691	76.9043	81.1143	76.9043	81.2844	76.9043	81.1565	76.9043	81.3025	76.9043	81.2195	76.9043	81.3275	76.9043	81.3027	76.9043	81.3638	76.9043	81.4038	76.9043	81.4154	76.9043	81.5181	76.9043	81.4844	76.9043	81.6392	76.9043	81.5703	76.9043	81.7592	76.9043	81.6693	76.9043	81.8695	76.9043	81.7742	76.9043	81.9614	76.9043	81.8756	76.9043	82.0274	76.9043	81.9632	76.9043	82.0619	76.9043	82.0276	76.9043	82.0618
79.834	82.0431	79.834	82.0253	79.834	82.0636	79.834	82.012	79.834	82.0854	79.834	82.0053	79.834	82.1075	79.834	82.0075	79.834	82.1297	79.834	82.021	79.834	82.1522	79.834	82.0477	79.834	82.176	79.834	82.0894	79.834	82.2029	79.834	82.1467	79.834	82.2355	79.834	82.2193	79.834	82.2763	79.834	82.3052	79.834	82.3277	79.834	82.401	79.834	82.3911	79.834	82.5021	79.834	82.466	79.834	82.6022	79.834	82.5492	79.834	82.6947	79.834	82.6356	79.834	82.7725	79.834	82.7178	79.834	82.8295	79.834	82.7878	79.834	82.8607	79.834	82.8383	79.834	82.8636
82.7637	82.8938	82.7637	82.884	82.7637	82.9086	82.7637	82.8801	82.7637	82.9277	82.7637	82.8831	82.7637	82.9504	82.7637	82.894	82.7637	82.9762	82.7637	82.914	82.7637	83.0049	82.7637	82.944	82.7637	83.0365	82.7637	82.9848	82.7637	83.0716	82.7637	83.0365	82.7637	83.111	82.7637	83.0988	82.7637	83.1559	82.7637	83.1705	82.7637	83.2074	82.7637	83.2492	82.7637	83.2659	82.7637	83.3317	82.7637	83.3307	82.7637	83.4135	82.7637	83.3998	82.7637	83.4897	82.7637	83.469	82.7637	83.5548	82.7637	83.5332	82.7637	83.6039	82.7637	83.5865	82.7637	83.6329	82.7637	83.6233	82.7637	83.6395
85.6934	83.713	85.6934	83.707	85.6934	83.7262	85.6934	83.7083	85.6934	83.7463	85.6934	83.7171	85.6934	83.7727	85.6934	83.7334	85.6934	83.8048	85.6934	83.7572	85.6934	83.8417	85.6934	83.7884	85.6934	83.8824	85.6934	83.8272	85.6934	83.9265	85.6934	83.8734	85.6934	83.9732	85.6934	83.9267	85.6934	84.0224	85.6934	83.9863	85.6934	84.0741	85.6934	84.0508	85.6934	84.1278	85.6934	84.1182	85.6934	84.1828	85.6934	84.1857	85.6934	84.2376	85.6934	84.2497	85.6934	84.2895	85.6934	84.3063	85.6934	84.335	85.6934	84.3515	85.6934	84.37	85.6934	84.382	85.6934	84.391	85.6934	84.3954
88.623	84.4613	88.623	84.4544	88.623	84.4774	88.623	84.4565	88.623	84.5028	88.623	84.4667	88.623	84.5368	88.623	84.4845	88.623	84.5785	88.623	84.5088	88.623	84.6264	88.623	84.539	88.623	84.6787	88.623	84.5746	88.623	84.7334	88.623	84.6151	88.623	84.7888	88.623	84.6603	88.623	84.8433	88.623	84.7099	88.623	84.8956	88.623	84.7633	88.623	84.9448	88.623	84.8196	88.623	84.9898	88.623	84.8771	88.623	85.0297	88.623	84.9337	88.623	85.063	88.623	84.9866	88.623	85.0878	88.623	85.0327	88.623	85.1022	88.623	85.069	88.623	85.1044	88.623	85.0933
91.5527	85.1631	91.5527	85.154	91.5527	85.182	91.5527	85.1537	91.5527	85.2107	91.5527	85.1614	91.5527	85.2487	91.5527	85.1757	91.5527	85.2947	91.5527	85.1953	91.5527	85.3467	91.5527	85.2192	91.5527	85.4024	91.5527	85.2466	91.5527	85.459	91.5527	85.277	91.5527	85.5138	91.5527	85.3103	91.5527	85.5645	91.5527	85.3465	91.5527	85.6092	91.5527	85.3858	91.5527	85.6466	91.5527	85.4281	91.5527	85.6762	91.5527	85.4727	91.5527	85.6975	91.5527	85.5185	91.5527	85.7106	91.5527	85.5639	91.5527	85.7151	91.5527	85.6065	91.5527	85.7108	91.5527	85.6442	91.5527	85.6973	91.5527	85.6749
94.4824	85.8014	94.4824	85.7951	94.4824	85.8181	94.4824	85.7981	94.4824	85.8456	94.4824	85.8088	94.4824	85.8835	94.4824	85.8252	94.4824	85.9305	94.4824	85.8458	94.4824	85.9843	94.4824	85.8688	94.4824	86.0421	94.4824	85.8933	94.4824	86.1003	94.4824	85.9185	94.4824	86.1557	94.4824	85.9443	94.4824	86.2051	94.4824	85.971	94.4824	86.2461	94.4824	85.9991	94.4824	86.2773	94.4824	86.0293	94.4824	86.298	94.4824	86.0618	94.4824	86.3085	94.4824	86.0965	94.4824	86.3093	94.4824	86.1327	94.4824	86.3016	94.4824	86.1692	94.4824	86.2863	94.4824	86.2043	94.4824	86.2642	94.4824	86.2365
98.1445	86.4611	98.1445	86.4592	98.1445	86.4748	98.1445	86.4673	98.1445	86.501	98.1445	86.4832	98.1445	86.5395	98.1445	86.5043	98.1445	86.5889	98.1445	86.528	98.1445	86.6466	98.1445	86.5523	98.1445	86.7089	98.1445	86.5756	98.1445	86.7717	98.1445	86.5967	98.1445	86.8306	98.1445	86.6156	98.1445	86.8816	98.1445	86.6328	98.1445	86.9216	98.1445	86.6493	98.1445	86.9486	98.1445	86.6665	98.1445	86.9617	98.1445	86.6857	98.1445	86.9616	98.1445	86.7083	98.1445	86.9498	98.1445	86.7347	98.1445	86.9285	98.1445	86.7648	98.1445	86.9004	98.1445	86.798	98.1445	86.8677	98.1445	86.8329
101.807	86.9017	101.807	86.903	101.807	86.9133	101.807	86.9151	101.807	86.939	101.807	86.935	101.807	86.9785	101.807	86.9595	101.807	87.0304	101.807	86.9855	101.807	87.0916	101.807	87.0102	101.807	87.1579	101.807	87.0315	101.807	87.2244	101.807	87.0482	101.807	87.286	101.807	87.06	101.807	87.3378	101.807	87.0675	101.807	87.376	101.807	87.0724	101.807	87.398	101.807	87.0767	101.807	87.403	101.807	87.0831	101.807	87.3919	101.807	87.0938	101.807	87.3671	101.807	87.1108	101.807	87.3321	101.807	87.1351	101.807	87.2908	101.807	87.1668	101.807	87.2472	101.807	87.2049
105.469	87.1059	105.469	87.1091	105.469	87.1161	105.469	87.1232	105.469	87.1409	105.469	87.1448	105.469	87.1801	105.469	87.1704	105.469	87.232	105.469	87.1962	105.469	87.2934	105.469	87.2191	105.469	87.3596	105.469	87.2365	105.469	87.4253	105.469	87.247	105.469	87.4847	105.469	87.2502	105.469	87.5328	105.469	87.2469	105.469	87.5652	105.469	87.2392	105.469	87.5793	105.469	87.2298	105.469	87.5744	105.469	87.2223	105.469	87.5516	105.469	87.2203	105.469	87.5142	105.469	87.2269	105.469	87.4664	105.469	87.2441	105.469	87.4135	105.469	87.2729	105.469	87.3606	105.469	87.3125
109.131	87.0978	109.131	87.1022	109.131	87.1081	109.131	87.1183	109.131	87.1344	109.131	87.1426	109.131	87.1767	109.131	87.1709	109.131	87.233	109.131	87.1992	109.131	87.2999	109.131	87.2237	109.131	87.3722	109.131	87.2417	109.131	87.444	109.131	87.2516	109.131	87.5092	109.131	87.2528	109.131	87.5618	109.131	87.2464	109.131	87.597	109.131	87.2345	109.131	87.6117	109.131	87.2206	109.131	87.605	109.131	87.2088	109.131	87.5781	109.131	87.2033	109.131	87.5343	109.131	87.2079	109.131	87.4787	109.131	87.2253	109.131	87.4173	109.131	87.2567	109.131	87.3562	109.131	87.3012
112.793	86.8786	112.793	86.8846	112.793	86.8885	112.793	86.9034	112.793	86.9159	112.793	86.9309	112.793	86.9609	112.793	86.9625	112.793	87.0215	112.793	86.9938	112.793	87.0938	112.793	87.0206	112.793	87.1724	112.793	87.0398	112.793	87.2508	112.793	87.0496	112.793	87.3222	112.793	87.0493	112.793	87.3798	112.793	87.04	112.793	87.4184	112.793	87.0241	112.793	87.4342	112.793	87.0054	112.793	87.4259	112.793	86.9886	112.793	87.3947	112.793	86.9786	112.793	87.3443	112.793	86.9801	112.793	87.2804	112.793	86.9967	112.793	87.2101	112.793	87.0298	112.793	87.1406	112.793	87.0788
116.455	86.5189	116.455	86.5251	116.455	86.529	116.455	86.544	116.455	86.5571	116.455	86.5715	116.455	86.6032	116.455	86.6027	116.455	86.6652	116.455	86.6327	116.455	86.7393	116.455	86.6573	116.455	86.8197	116.455	86.673	116.455	86.8995	116.455	86.6779	116.455	86.9715	116.455	86.6713	116.455	87.0285	116.455	86.6545	116.455	87.0647	116.455	86.6301	116.455	87.0761	116.455	86.6025	116.455	87.0612	116.455	86.577	116.455	87.0213	116.455	86.5595	116.455	86.9607	116.455	86.5556	116.455	86.8858	116.455	86.5695	116.455	86.8046	116.455	86.6032	116.455	86.7255	116.455	86.6564
120.85	86.1149	120.85	86.122	120.85	86.1242	120.85	86.1418	120.85	86.1516	120.85	86.1698	120.85	86.1973	120.85	86.201	120.85	86.2592	120.85	86.2302	120.85	86.3334	120.85	86.2529	120.85	86.4139	120.85	86.2655	120.85	86.4938	120.85	86.2659	120.85	86.5652	120.85	86.2534	120.85	86.6209	120.85	86.2293	120.85	86.6546	120.85	86.1966	120.85	86.662	120.85	86.1601	120.85	86.6414	120.85	86.1258	120.85	86.5943	120.85	86.1005	120.85	86.5252	120.85	86.0904	120.85	86.4411	120.85	86.1006	120.85	86.3509	120.85	86.1339	120.85	86.2642	120.85	86.1896
125.244	85.6616	125.244	85.6662	125.244	85.673	125.244	85.6831	125.244	85.7023	125.244	85.7079	125.244	85.7496	125.244	85.7355	125.244	85.813	125.244	85.7606	125.244	85.8883	125.244	85.7787	125.244	85.9698	125.244	85.7861	125.244	86.0502	125.244	85.7806	125.244	86.1217	125.244	85.7617	125.244	86.1765	125.244	85.7307	125.244	86.2079	125.244	85.6909	125.244	86.2114	125.244	85.6476	125.244	86.185	125.244	85.6074	125.244	86.1301	125.244	85.5775	125.244	86.0514	125.244	85.5651	125.244	85.9565	125.244	85.5757	125.244	85.8552	125.244	85.6123	125.244	85.7579	125.244	85.6745
129.639	85.1676	129.639	85.1703	129.639	85.1799	129.639	85.1843	129.639	85.2091	129.639	85.2052	129.639	85.2555	129.639	85.2278	129.639	85.3172	129.639	85.247	129.639	85.3902	129.639	85.2582	129.639	85.4688	129.639	85.2579	129.639	85.5456	129.639	85.2437	129.639	85.6128	129.639	85.2155	129.639	85.6623	129.639	85.1746	129.639	85.6873	129.639	85.1247	129.639	85.6829	129.639	85.0715	129.639	85.6473	129.639	85.022	129.639	85.5818	129.639	84.9842	129.639	85.4917	129.639	84.966	129.639	85.3852	129.639	84.9736	129.639	85.2729	129.639	85.0104	129.639	85.1664	129.639	85.0761
134.033	84.7117	134.033	84.7153	134.033	84.7221	134.033	84.7291	134.033	84.7487	134.033	84.7484	134.033	84.7917	134.033	84.7678	134.033	84.8493	134.033	84.782	134.033	84.9177	134.033	84.7864	134.033	84.9909	134.033	84.7774	134.033	85.0615	134.033	84.7529	134.033	85.1214	134.033	84.7125	134.033	85.1624	134.033	84.6581	134.033	85.1775	134.033	84.5938	134.033	85.162	134.033	84.5257	134.033	85.114	134.033	84.4617	134.033	85.0355	134.033	84.4108	134.033	84.9321	134.033	84.3816	134.033	84.813	134.033	84.3813	134.033	84.6899	134.033	84.4143	134.033	84.5752	134.033	84.4804
138.428	84.1698	138.428	84.1779	138.428	84.1779	138.428	84.1981	138.428	84.2046	138.428	84.2253	138.428	84.2501	138.428	84.2535	138.428	84.3127	138.428	84.277	138.428	84.3879	138.428	84.2906	138.428	84.4696	138.428	84.2901	138.428	84.5499	138.428	84.2733	138.428	84.62	138.428	84.2394	138.428	84.6712	138.428	84.1904	138.428	84.6959	138.428	84.1303	138.428	84.689	138.428	84.0654	138.428	84.6484	138.428	84.0038	138.428	84.5756	138.428	83.9547	138.428	84.4763	138.428	83.9269	138.428	84.36	138.428	83.928	138.428	84.2383	138.428	83.962	138.428	84.124	138.428	84.0289
143.555	83.6206	143.555	83.6288	143.555	83.6282	143.555	83.6488	143.555	83.6539	143.555	83.6753	143.555	83.6984	143.555	83.7026	143.555	83.7598	143.555	83.7247	143.555	83.8342	143.555	83.7365	143.555	83.9154	143.555	83.734	143.555	83.9957	143.555	83.7146	143.555	84.0662	143.555	83.6779	143.555	84.1182	143.555	83.6258	143.555	84.1436	143.555	83.5625	143.555	84.1369	143.555	83.4946	143.555	84.0957	143.555	83.4305	143.555	84.0214	143.555	83.3796	143.555	83.9197	143.555	83.351	143.555	83.8	143.555	83.3524	143.555	83.6744	143.555	83.388	143.555	83.5562	143.555	83.4576
148.682	83.2236	148.682	83.2298	148.682	83.2327	148.682	83.2474	148.682	83.2593	148.682	83.2714	148.682	83.3041	148.682	83.2961	148.682	83.3651	148.682	83.3155	148.682	83.4387	148.682	83.3246	148.682	83.5188	148.682	83.319	148.682	83.5978	148.682	83.2963	148.682	83.667	148.682	83.256	148.682	83.7174	148.682	83.2	148.682	83.7408	148.682	83.1326	148.682	83.7315	148.682	83.0606	148.682	83.6866	148.682	82.9926	148.682	83.6077	148.682	82.9385	148.682	83.5006	148.682	82.9078	148.682	83.3749	148.682	82.9083	148.682	83.2433	148.682	82.9448	148.682	83.1198	148.682	83.017
153.809	82.85	153.809	82.8523	153.809	82.8611	153.809	82.8643	153.809	82.8881	153.809	82.8809	153.809	82.9311	153.809	82.8966	153.809	82.9885	153.809	82.9055	153.809	83.0566	153.809	82.9024	153.809	83.1293	153.809	82.8831	153.809	83.199	153.809	82.845	153.809	83.2569	153.809	82.7878	153.809	83.294	153.809	82.7136	153.809	83.3021	153.809	82.6272	153.809	83.2754	153.809	82.5359	153.809	83.2115	153.809	82.4494	153.809	83.1122	153.809	82.3788	153.809	82.984	153.809	82.3351	153.809	82.838	153.809	82.3275	153.809	82.6881	153.809	82.3615	153.809	82.5499	153.809	82.4374
159.668	82.3596	159.668	82.3657	159.668	82.3676	159.668	82.3819	159.668	82.3922	159.668	82.403	159.668	82.4339	159.668	82.4228	159.668	82.4911	159.668	82.4353	159.668	82.5599	159.668	82.4347	159.668	82.6344	159.668	82.4166	159.668	82.7067	159.668	82.3782	159.668	82.7677	159.668	82.3192	159.668	82.8079	159.668	82.2419	159.668	82.8186	159.668	82.1514	159.668	82.7936	159.668	82.0555	159.668	82.7302	159.668	81.9645	159.668	82.6301	159.668	81.8899	159.668	82.5002	159.668	81.8431	159.668	82.3518	159.668	81.8337	159.668	82.1992	159.668	81.8673	159.668	82.0584	159.668	81.9441
164.795	81.9711	164.795	81.973	164.795	81.9824	164.795	81.9843	164.795	82.0093	164.795	82.0002	164.795	82.0522	164.795	82.0151	164.795	82.1099	164.795	82.023	164.795	82.1791	164.795	82.0187	164.795	82.2543	164.795	81.9978	164.795	82.3281	164.795	81.9578	164.795	82.3913	164.795	81.8984	164.795	82.4347	164.795	81.8221	164.795	82.4492	164.795	81.734	164.795	82.4283	164.795	81.6423	164.795	82.3686	164.795	81.557	164.795	82.2716	164.795	81.4895	164.795	82.1435	164.795	81.4509	164.795	81.9952	164.795	81.4501	164.795	81.8408	164.795	81.4921	164.795	81.6963	164.795	81.5762
170.654	81.8194	170.654	81.8261	170.654	81.8237	170.654	81.8401	170.654	81.8415	170.654	81.8563	170.654	81.8736	170.654	81.869	170.654	81.9189	170.654	81.8723	170.654	81.9745	170.654	81.8609	170.654	82.0355	170.654	81.8305	170.654	82.095	170.654	81.779	170.654	82.1444	170.654	81.7065	170.654	82.1745	170.654	81.6159	170.654	82.1768	170.654	81.5129	170.654	82.1446	170.654	81.4059	170.654	82.0749	170.654	81.3057	170.654	81.9692	170.654	81.2238	170.654	81.8343	170.654	81.1717	170.654	81.6815	170.654	81.1589	170.654	81.5255	170.654	81.1906	170.654	81.3824	170.654	81.2671
176.514	81.6191	176.514	81.6236	176.514	81.6264	176.514	81.6363	176.514	81.6477	176.514	81.6527	176.514	81.6837	176.514	81.6671	176.514	81.7334	176.514	81.6736	176.514	81.7943	176.514	81.6666	176.514	81.8615	176.514	81.6415	176.514	81.9282	176.514	81.5955	176.514	81.9856	176.514	81.5283	176.514	82.0242	176.514	81.4423	176.514	82.0347	176.514	81.3432	176.514	82.0097	176.514	81.2396	176.514	81.9456	176.514	81.1423	176.514	81.8435	176.514	81.0635	176.514	81.7095	176.514	81.0151	176.514	81.5553	176.514	81.0067	176.514	81.3958	176.514	81.0439	176.514	81.2476	176.514	81.1263
183.105	81.3622	183.105	81.3699	183.105	81.3658	183.105	81.3856	183.105	81.383	183.105	81.4047	183.105	81.4147	183.105	81.422	183.105	81.4606	183.105	81.4316	183.105	81.5186	183.105	81.4281	183.105	81.5846	183.105	81.4069	183.105	81.6522	183.105	81.3652	183.105	81.7129	183.105	81.3026	183.105	81.7569	183.105	81.2217	183.105	81.7744	183.105	81.1279	183.105	81.7578	183.105	81.0297	183.105	81.7027	183.105	80.9376	183.105	81.6097	183.105	80.8635	183.105	81.4849	183.105	80.8186	183.105	81.3392	183.105	80.8121	183.105	81.1874	183.105	80.849	183.105	81.0456	183.105	80.9289
189.697	81.1294	189.697	81.1359	189.697	81.1314	189.697	81.148	189.697	81.1439	189.697	81.1616	189.697	81.1682	189.697	81.172	189.697	81.2045	189.697	81.1739	189.697	81.2516	189.697	81.1624	189.697	81.3064	189.697	81.1332	189.697	81.3635	189.697	81.0838	189.697	81.4151	189.697	81.014	189.697	81.4518	189.697	80.9266	189.697	81.464	189.697	80.8273	189.697	81.4436	189.697	80.7245	189.697	81.3862	189.697	80.6291	189.697	81.292	189.697	80.5526	189.697	81.1668	189.697	80.5063	189.697	81.0215	189.697	80.4988	189.697	80.8704	189.697	80.5349	189.697	80.7296	189.697	80.6139
196.289	80.9132	196.289	80.916	196.289	80.9191	196.289	80.9245	196.289	80.9356	196.289	80.9354	196.289	80.9643	196.289	80.9442	196.289	81.0058	196.289	80.9462	196.289	81.0593	196.289	80.9365	196.289	81.1221	196.289	80.911	196.289	81.1887	196.289	80.8671	196.289	81.2511	196.289	80.8046	196.289	81.2991	196.289	80.7258	196.289	81.3224	196.289	80.6363	196.289	81.3123	196.289	80.5443	196.289	81.2634	196.289	80.4603	196.289	81.1757	196.289	80.3956	196.289	81.0547	196.289	80.3606	196.289	80.9112	196.289	80.3637	196.289	80.7596	196.289	80.409	196.289	80.616	196.289	80.4952
202.881	80.3889	202.881	80.4023	202.881	80.3802	202.881	80.4169	202.881	80.3795	202.881	80.4293	202.881	80.3902	202.881	80.4358	202.881	80.415	202.881	80.4325	202.881	80.4556	202.881	80.4162	202.881	80.5114	202.881	80.3844	202.881	80.5785	202.881	80.3362	202.881	80.6491	202.881	80.2727	202.881	80.7125	202.881	80.1975	202.881	80.7568	202.881	80.1165	202.881	80.7711	202.881	80.0381	202.881	80.7483	202.881	79.9714	202.881	80.6864	202.881	79.9262	202.881	80.5893	202.881	79.9107	202.881	80.4662	202.881	79.9304	202.881	80.3304	202.881	79.9871	202.881	80.1964	202.881	80.0782
210.205	80.257	210.205	80.2734	210.205	80.237	210.205	80.2842	210.205	80.2153	210.205	80.2866	210.205	80.1941	210.205	80.2773	210.205	80.1757	210.205	80.2528	210.205	80.1628	210.205	80.2099	210.205	80.1572	210.205	80.1464	210.205	80.1591	210.205	80.0621	210.205	80.1652	210.205	79.9593	210.205	80.1694	210.205	79.8427	210.205	80.163	210.205	79.72	210.205	80.137	210.205	79.6007	210.205	80.0851	210.205	79.4952	210.205	80.005	210.205	79.4136	210.205	79.9002	210.205	79.3642	210.205	79.7793	210.205	79.3522	210.205	79.6542	210.205	79.3794	210.205	79.5382	210.205	79.4434
217.529	80.0801	217.529	80.0858	217.529	80.0756	217.529	80.0906	217.529	80.0735	217.529	80.0911	217.529	80.0745	217.529	80.0833	217.529	80.0794	217.529	80.062	217.529	80.0883	217.529	80.0227	217.529	80.1004	217.529	79.9618	217.529	80.1133	217.529	79.8778	217.529	80.1218	217.529	79.7719	217.529	80.1189	217.529	79.6485	217.529	80.0959	217.529	79.5151	217.529	80.0453	217.529	79.3817	217.529	79.9627	217.529	79.2599	217.529	79.8484	217.529	79.1615	217.529	79.7089	217.529	79.0967	217.529	79.5554	217.529	79.0731	217.529	79.403	217.529	79.0947	217.529	79.267	217.529	79.161
225.586	79.7545	225.586	79.7549	225.586	79.7531	225.586	79.753	225.586	79.7516	225.586	79.7467	225.586	79.7514	225.586	79.7328	225.586	79.7542	225.586	79.7072	225.586	79.7622	225.586	79.6658	225.586	79.7766	225.586	79.6057	225.586	79.7966	225.586	79.5257	225.586	79.8183	225.586	79.4279	225.586	79.8343	225.586	79.3172	225.586	79.8354	225.586	79.2019	225.586	79.8122	225.586	79.0922	225.586	79.7586	225.586	78.9993	225.586	79.6727	225.586	78.9333	225.586	79.5587	225.586	78.902	225.586	79.4257	225.586	78.9097	225.586	79.2861	225.586	78.9569	225.586	79.1535	225.586	79.0404
232.91	79.7782	232.91	79.7744	232.91	79.7728	232.91	79.7605	232.91	79.7587	232.91	79.7355	232.91	79.7377	232.91	79.6975	232.91	79.7124	232.91	79.6438	232.91	79.6866	232.91	79.5718	232.91	79.6636	232.91	79.4797	232.91	79.6451	232.91	79.3677	232.91	79.6293	232.91	79.2389	232.91	79.6113	232.91	79.0998	232.91	79.5831	232.91	78.9596	232.91	79.5365	232.91	78.83	232.91	79.4655	232.91	78.7226	232.91	79.3684	232.91	78.6475	232.91	79.2489	232.91	78.6112	232.91	79.1153	232.91	78.6163	232.91	78.9786	232.91	78.6613	232.91	78.8505	232.91	78.7417
241.699	79.6081	241.699	79.6012	241.699	79.6082	241.699	79.5881	241.699	79.601	241.699	79.5678	241.699	79.5864	241.699	79.5381	241.699	79.5655	241.699	79.4954	241.699	79.5404	241.699	79.4356	241.699	79.5134	241.699	79.355	241.699	79.4854	241.699	79.2522	241.699	79.4551	241.699	79.1287	241.699	79.4177	241.699	78.9897	241.699	79.3665	241.699	78.844	241.699	79.2951	241.699	78.7031	241.699	79.1997	241.699	78.5789	241.699	79.0814	241.699	78.4825	241.699	78.947	241.699	78.4214	241.699	78.807	241.699	78.3993	241.699	78.674	241.699	78.4167	241.699	78.5592	241.699	78.4714
249.756	79.4071	249.756	79.3885	249.756	79.4127	249.756	79.3569	249.756	79.4052	249.756	79.3117	249.756	79.3856	249.756	79.2513	249.756	79.356	249.756	79.1732	249.756	79.3196	249.756	79.0751	249.756	79.2797	249.756	78.9555	249.756	79.2378	249.756	78.8151	249.756	79.1921	249.756	78.6574	249.756	79.1374	249.756	78.4895	249.756	79.0658	249.756	78.3213	249.756	78.9698	249.756	78.1646	249.756	78.8456	249.756	78.0314	249.756	78.695	249.756	77.9314	249.756	78.5267	249.756	77.8713	249.756	78.3539	249.756	77.8539	249.756	78.1915	249.756	77.8796	249.756	78.0527	249.756	77.9469
258.545	79.5007	258.545	79.4662	258.545	79.521	258.545	79.4189	258.545	79.5253	258.545	79.3591	258.545	79.5131	258.545	79.2856	258.545	79.4859	258.545	79.1956	258.545	79.4469	258.545	79.0857	258.545	79.4003	258.545	78.9537	258.545	79.3488	258.545	78.7992	258.545	79.2917	258.545	78.6256	258.545	79.2241	258.545	78.4399	258.545	79.1374	258.545	78.2527	258.545	79.0228	258.545	78.0771	258.545	78.8752	258.545	77.9263	258.545	78.6964	258.545	77.8115	258.545	78.4963	258.545	77.7403	258.545	78.2911	258.545	77.7169	258.545	78.0994	258.545	77.7424	258.545	77.9376	258.545	77.8167
268.066	79.4205	268.066	79.3589	268.066	79.4707	268.066	79.2911	268.066	79.5051	268.066	79.2212	268.066	79.5221	268.066	79.1504	268.066	79.5238	268.066	79.0768	268.066	79.5155	268.066	78.9958	268.066	79.5036	268.066	78.9024	268.066	79.4925	268.066	78.7931	268.066	79.4818	268.066	78.6681	268.066	79.4651	268.066	78.5314	268.066	79.4305	268.066	78.3917	268.066	79.3653	268.066	78.2601	268.066	79.2597	268.066	78.1488	268.066	79.1115	268.066	78.0687	268.066	78.9276	268.066	78.0283	268.066	78.7236	268.066	78.0332	268.066	78.5198	268.066	78.0865	268.066	78.3362	268.066	78.1887
277.588	79.1684	277.588	79.076	277.588	79.2291	277.588	78.9561	277.588	79.2562	277.588	78.8141	277.588	79.2509	277.588	78.6555	277.588	79.2178	277.588	78.485	277.588	79.1646	277.588	78.3065	277.588	79.1007	277.588	78.1232	277.588	79.0343	277.588	77.9386	277.588	78.9698	277.588	77.7579	277.588	78.9055	277.588	77.5884	277.588	78.8332	277.588	77.4394	277.588	78.7418	277.588	77.3208	277.588	78.6213	277.588	77.2411	277.588	78.4669	277.588	77.2056	277.588	78.2822	277.588	77.2159	277.588	78.0781	277.588	77.271	277.588	77.8703	277.588	77.3684	277.588	77.6749	277.588	77.5047
287.109	79.1517	287.109	79.0796	287.109	79.1851	287.109	78.971	287.109	79.1811	287.109	78.8303	287.109	79.1455	287.109	78.663	287.109	79.089	287.109	78.4744	287.109	79.0252	287.109	78.2694	287.109	78.9684	287.109	78.0528	287.109	78.9289	287.109	77.831	287.109	78.9088	287.109	77.6125	287.109	78.9	287.109	77.4092	287.109	78.8866	287.109	77.2355	287.109	78.8491	287.109	77.106	287.109	78.7709	287.109	77.033	287.109	78.6433	287.109	77.0229	287.109	78.4672	287.109	77.0761	287.109	78.2529	287.109	77.1874	287.109	78.0163	287.109	77.3483	287.109	77.7758	287.109	77.5484
297.363	79.5499	297.363	79.5395	297.363	79.5151	297.363	79.4814	297.363	79.4398	297.363	79.3741	297.363	79.3313	297.363	79.2178	297.363	79.2002	297.363	79.0146	297.363	79.0612	297.363	78.7695	297.363	78.9314	297.363	78.4909	297.363	78.8258	297.363	78.1915	297.363	78.7526	297.363	77.8881	297.363	78.7086	297.363	77.6014	297.363	78.6786	297.363	77.3534	297.363	78.6407	297.363	77.1642	297.363	78.5735	297.363	77.0476	297.363	78.4632	297.363	77.0082	297.363	78.3069	297.363	77.0415	297.363	78.1127	297.363	77.1372	297.363	77.896	297.363	77.2826	297.363	77.6748	297.363	77.4658
307.617	78.9166	307.617	78.9088	307.617	78.8857	307.617	78.8637	307.617	78.8164	307.617	78.7824	307.617	78.7137	307.617	78.6646	307.617	78.5891	307.617	78.5088	307.617	78.4618	307.617	78.3139	307.617	78.3563	307.617	78.0812	307.617	78.2964	307.617	77.8174	307.617	78.2958	307.617	77.5365	307.617	78.3503	307.617	77.2608	307.617	78.4369	307.617	77.0188	307.617	78.5209	307.617	76.8405	307.617	78.5679	307.617	76.7499	307.617	78.5523	307.617	76.7579	307.617	78.4627	307.617	76.8605	307.617	78.3011	307.617	77.0414	307.617	78.0807	307.617	77.278	307.617	77.8214	307.617	77.5459
318.604	78.8275	318.604	78.8889	318.604	78.7155	318.604	78.9	318.604	78.5525	318.604	78.8604	318.604	78.3402	318.604	78.7691	318.604	78.0855	318.604	78.6251	318.604	77.8038	318.604	78.4285	318.604	77.5214	318.604	78.1819	318.604	77.2741	318.604	77.8922	318.604	77.0984	318.604	77.572	318.604	77.0173	318.604	77.2412	318.604	77.028	318.604	76.9267	318.604	77.1015	318.604	76.6594	318.604	77.1944	318.604	76.4689	318.604	77.2655	318.604	76.3747	318.604	77.2863	318.604	76.3805	318.604	77.2441	318.604	76.4728	318.604	77.1405	318.604	76.6256	318.604	76.9881	318.604	76.8076
329.59	78.546	329.59	78.5896	329.59	78.4633	329.59	78.6006	329.59	78.3327	329.59	78.5817	329.59	78.1458	329.59	78.5316	329.59	77.8981	329.59	78.4465	329.59	77.5937	329.59	78.3221	329.59	77.2489	329.59	78.1554	329.59	76.8943	329.59	77.9477	329.59	76.5725	329.59	77.7053	329.59	76.3278	329.59	77.4409	329.59	76.1898	329.59	77.173	329.59	76.1599	329.59	76.9244	329.59	76.2116	329.59	76.7175	329.59	76.3042	329.59	76.5687	329.59	76.3994	329.59	76.4835	329.59	76.4712	329.59	76.4547	329.59	76.5081	329.59	76.4647	329.59	76.5111	329.59	76.4908
341.309	78.9872	341.309	78.9244	341.309	79.0196	341.309	78.848	341.309	79.0031	341.309	78.7694	341.309	78.9222	341.309	78.692	341.309	78.7684	341.309	78.6131	341.309	78.5433	341.309	78.526	341.309	78.2601	341.309	78.4244	341.309	77.9429	341.309	78.3049	341.309	77.6247	341.309	78.1688	341.309	77.3408	341.309	78.0215	341.309	77.1207	341.309	77.8717	341.309	76.9802	341.309	77.7291	341.309	76.918	341.309	77.6017	341.309	76.9192	341.309	77.4942	341.309	76.9621	341.309	77.407	341.309	77.0258	341.309	77.3366	341.309	77.0948	341.309	77.2767	341.309	77.1603	341.309	77.22
353.76	79.6832	353.76	79.548	353.76	79.7624	353.76	79.3745	353.76	79.7684	353.76	79.1786	353.76	79.6875	353.76	78.9712	353.76	79.5122	353.76	78.7582	353.76	79.2429	353.76	78.5418	353.76	78.8904	353.76	78.3233	353.76	78.4775	353.76	78.1067	353.76	78.0394	353.76	77.9007	353.76	77.6211	353.76	77.719	353.76	77.2699	353.76	77.5763	353.76	77.0242	353.76	77.4838	353.76	76.902	353.76	77.4436	353.76	76.8959	353.76	77.4461	353.76	76.978	353.76	77.4719	353.76	77.1097	353.76	77.4968	353.76	77.2524	353.76	77.498	353.76	77.3755	353.76	77.4595
366.211	79.7378	366.211	79.5746	366.211	79.8524	366.211	79.3819	366.211	79.901	366.211	79.1779	366.211	79.8713	366.211	78.9751	366.211	79.7577	366.211	78.7792	366.211	79.5625	366.211	78.5896	366.211	79.2964	366.211	78.403	366.211	78.9781	366.211	78.2184	366.211	78.6332	366.211	78.0413	366.211	78.291	366.211	77.8837	366.211	77.98	366.211	77.7607	366.211	77.7237	366.211	77.6844	366.211	77.538	366.211	77.6569	366.211	77.4297	366.211	77.667	366.211	77.3969	366.211	77.6936	366.211	77.4273	366.211	77.7122	366.211	77.4991	366.211	77.7036	366.211	77.5853	366.211	77.6595
378.662	79.9871	378.662	79.8143	378.662	80.1017	378.662	79.5985	378.662	80.1448	378.662	79.3555	378.662	80.1076	378.662	79.0988	378.662	79.986	378.662	78.8373	378.662	79.782	378.662	78.575	378.662	79.5045	378.662	78.3127	378.662	79.1692	378.662	78.0524	378.662	78.7986	378.662	77.8019	378.662	78.4205	378.662	77.5771	378.662	78.0649	378.662	77.4002	378.662	77.7607	378.662	77.2915	378.662	77.5313	378.662	77.2594	378.662	77.39	378.662	77.2935	378.662	77.3359	378.662	77.3665	378.662	77.3517	378.662	77.4437	378.662	77.4073	378.662	77.4948	378.662	77.4677	378.662	77.5027
392.578	79.6979	392.578	79.5504	392.578	79.7893	392.578	79.3593	392.578	79.8142	392.578	79.1379	392.578	79.7659	392.578	78.8975	392.578	79.6427	392.578	78.6464	392.578	79.4489	392.578	78.3894	392.578	79.1955	392.578	78.1292	392.578	78.8995	392.578	77.8696	392.578	78.5823	392.578	77.6189	392.578	78.2665	392.578	77.3911	392.578	77.9725	392.578	77.2051	392.578	77.7162	392.578	77.0782	392.578	77.5088	392.578	77.0189	392.578	77.3565	392.578	77.0212	392.578	77.2604	392.578	77.0647	392.578	77.2137	392.578	77.1225	392.578	77.2016	392.578	77.1711	392.578	77.2031	392.578	77.1975
405.762	79.8641	405.762	79.6981	405.762	79.9756	405.762	79.4906	405.762	80.0196	405.762	79.2524	405.762	79.9855	405.762	78.9905	405.762	79.8677	405.762	78.7076	405.762	79.6668	405.762	78.404	405.762	79.3911	405.762	78.0807	405.762	79.057	405.762	77.7447	405.762	78.6877	405.762	77.4133	405.762	78.3113	405.762	77.1158	405.762	77.957	405.762	76.8895	405.762	77.6522	405.762	76.7668	405.762	77.4198	405.762	76.76	405.762	77.275	405.762	76.852	405.762	77.219	405.762	77.0009	405.762	77.2342	405.762	77.1565	405.762	77.286	405.762	77.2761	405.762	77.3318	405.762	77.3351
420.41	79.7838	420.41	79.6275	420.41	79.8749	420.41	79.4185	420.41	79.8899	420.41	79.1691	420.41	79.8221	420.41	78.8896	420.41	79.6705	420.41	78.5878	420.41	79.4413	420.41	78.2694	420.41	79.1479	420.41	77.9409	420.41	78.8104	420.41	77.6124	420.41	78.4522	420.41	77.301	420.41	78.0969	420.41	77.0311	420.41	77.7648	420.41	76.8302	420.41	77.4728	420.41	76.7199	420.41	77.236	420.41	76.7044	420.41	77.0678	420.41	76.7652	420.41	76.9757	420.41	76.8658	420.41	76.9543	420.41	76.9653	420.41	76.9819	420.41	77.0314	420.41	77.0249	420.41	77.0493
435.059	80.0619	435.059	79.9057	435.059	80.155	435.059	79.6985	435.059	80.1738	435.059	79.4502	435.059	80.1091	435.059	79.1672	435.059	79.9563	435.059	78.8517	435.059	79.7168	435.059	78.5029	435.059	79.3999	435.059	78.1215	435.059	79.0234	435.059	77.7155	435.059	78.6134	435.059	77.3065	435.059	78.2013	435.059	76.9329	435.059	77.8197	435.059	76.6451	435.059	77.498	435.059	76.4891	435.059	77.2589	435.059	76.4828	435.059	77.1157	435.059	76.6025	435.059	77.0671	435.059	76.7917	435.059	77.0924	435.059	76.9856	435.059	77.1536	435.059	77.1325	435.059	77.2048	435.059	77.2057
450.439	79.8807	450.439	79.7382	450.439	79.9574	450.439	79.5406	450.439	79.9596	450.439	79.2985	450.439	79.8811	450.439	79.021	450.439	79.7198	450.439	78.7133	450.439	79.4784	450.439	78.3756	450.439	79.1654	450.439	78.0051	450.439	78.7956	450.439	77.6021	450.439	78.3892	450.439	77.1781	450.439	77.9707	450.439	76.764	450.439	77.5669	450.439	76.4103	450.439	77.2063	450.439	76.1747	450.439	76.9174	450.439	76.0951	450.439	76.7247	450.439	76.1643	450.439	76.6385	450.439	76.3302	450.439	76.6441	450.439	76.5208	450.439	76.7002	450.439	76.6735	450.439	76.7522	450.439	76.752
466.553	79.9024	466.553	79.7492	466.553	79.9907	466.553	79.5462	466.553	79.9989	466.553	79.3051	466.553	79.9157	466.553	79.0321	466.553	79.7373	466.553	78.7278	466.553	79.4696	466.553	78.39	466.553	79.1298	466.553	78.0173	466.553	78.7444	466.553	77.6142	466.553	78.3454	466.553	77.1969	466.553	77.9622	466.553	76.7967	466.553	77.6153	466.553	76.4588	466.553	77.3139	466.553	76.23	466.553	77.0617	466.553	76.1376	466.553	76.8635	466.553	76.171	466.553	76.726	466.553	76.285	466.553	76.6503	466.553	76.4207	466.553	76.6234	466.553	76.5311	466.553	76.6163	466.553	76.5944
482.666	80.1794	482.666	80.0036	482.666	80.2724	482.666	79.7592	482.666	80.2707	482.666	79.4605	482.666	80.1664	482.666	79.1198	482.666	79.9568	482.666	78.7445	482.666	79.6466	482.666	78.3365	482.666	79.2501	482.666	77.8952	482.666	78.7926	482.666	77.4244	482.666	78.3105	482.666	76.942	482.666	77.8449	482.666	76.4879	482.666	77.4333	482.666	76.123	482.666	77.1012	482.666	75.9112	482.666	76.861	482.666	75.8853	482.666	76.717	482.666	76.0224	482.666	76.6655	482.666	76.253	482.666	76.6887	482.666	76.4945	482.666	76.749	482.666	76.6824	482.666	76.796	482.666	76.7831
500.244	80.4735	500.244	80.343	500.244	80.5388	500.244	80.1596	500.244	80.5244	500.244	79.93	500.244	80.4164	500.244	79.6546	500.244	80.205	500.244	79.3272	500.244	79.8877	500.244	78.9384	500.244	79.4728	500.244	78.4804	500.244	78.9824	500.244	77.9544	500.244	78.4534	500.244	77.379	500.244	77.9341	500.244	76.7997	500.244	77.4748	500.244	76.2913	500.244	77.1145	500.244	75.943	500.244	76.8717	500.244	75.8163	500.244	76.7451	500.244	75.9044	500.244	76.7159	500.244	76.1324	500.244	76.7507	500.244	76.4011	500.244	76.8036	500.244	76.6299	500.244	76.825	500.244	76.774
517.822	80.3112	517.822	80.1675	517.822	80.3931	517.822	79.9763	517.822	80.3967	517.822	79.7477	517.822	80.3073	517.822	79.4854	517.822	80.1151	517.822	79.1864	517.822	79.8187	517.822	78.8429	517.822	79.4277	517.822	78.446	517.822	78.9638	517.822	77.9914	517.822	78.4606	517.822	77.4871	517.822	77.9588	517.822	76.9628	517.822	77.5	517.822	76.4763	517.822	77.1203	517.822	76.1074	517.822	76.8461	517.822	75.9268	517.822	76.6896	517.822	75.9518	517.822	76.6425	517.822	76.1291	517.822	76.6724	517.822	76.3661	517.822	76.7284	517.822	76.5775	517.822	76.7557	517.822	76.7118
536.133	80.25	536.133	80.0635	536.133	80.382	536.133	79.8482	536.133	80.4324	536.133	79.6217	536.133	80.3779	536.133	79.3881	536.133	80.2031	536.133	79.1366	536.133	79.9035	536.133	78.8467	536.133	79.4889	536.133	78.4966	536.133	78.9855	536.133	78.074	536.133	78.4363	536.133	77.586	536.133	77.8942	536.133	77.0682	536.133	77.4107	536.133	76.5891	536.133	77.0257	536.133	76.2402	536.133	76.7636	536.133	76.097	536.133	76.6349	536.133	76.1692	536.133	76.6323	536.133	76.3883	536.133	76.7234	536.133	76.648	536.133	76.8509	536.133	76.8558	536.133	76.948	536.133	76.959
554.443	80.3592	554.443	80.2016	554.443	80.4721	554.443	80.0163	554.443	80.5202	554.443	79.8137	554.443	80.4837	554.443	79.594	554.443	80.3461	554.443	79.3456	554.443	80.0973	554.443	79.0484	554.443	79.7375	554.443	78.6805	554.443	79.2803	554.443	78.2282	554.443	78.7529	554.443	77.6965	554.443	78.1938	554.443	77.1203	554.443	77.6484	554.443	76.5733	554.443	77.1656	554.443	76.1619	554.443	76.7961	554.443	75.9819	554.443	76.5839	554.443	76.0539	554.443	76.544	554.443	76.2998	554.443	76.641	554.443	76.5938	554.443	76.7956	554.443	76.8272	554.443	76.918	554.443	76.9392
574.219	79.663	574.219	79.4191	574.219	79.8605	574.219	79.1656	574.219	79.9796	574.219	78.9338	574.219	79.9972	574.219	78.7379	574.219	79.9022	574.219	78.5684	574.219	79.6959	574.219	78.3979	574.219	79.3946	574.219	78.1939	574.219	79.027	574.219	77.9322	574.219	78.6275	574.219	77.6052	574.219	78.2226	574.219	77.2289	574.219	77.8228	574.219	76.8494	574.219	77.4295	574.219	76.5413	574.219	77.057	574.219	76.3832	574.219	76.7499	574.219	76.4088	574.219	76.5713	574.219	76.5722	574.219	76.5564	574.219	76.7717	574.219	76.6716	574.219	76.9075	574.219	76.8263	574.219	76.9246
594.727	79.7576	594.727	79.5474	594.727	79.9188	594.727	79.3171	594.727	80.0035	594.727	79.0935	594.727	79.9899	594.727	78.8932	594.727	79.8649	594.727	78.7154	594.727	79.6284	594.727	78.5413	594.727	79.2988	594.727	78.3435	594.727	78.914	594.727	78.1009	594.727	78.5263	594.727	77.8099	594.727	78.1837	594.727	77.4899	594.727	77.91	594.727	77.1835	594.727	77.6985	594.727	76.9502	594.727	77.531	594.727	76.8461	594.727	77.4014	594.727	76.8907	594.727	77.3228	594.727	77.0463	594.727	77.3105	594.727	77.235	594.727	77.3562	594.727	77.3803	594.727	77.4182	594.727	77.4401
615.234	79.0207	615.234	78.6025	615.234	79.2895	615.234	78.0986	615.234	79.3721	615.234	77.5969	615.234	79.2542	615.234	77.1885	615.234	78.942	615.234	76.925	615.234	78.4643	615.234	76.7886	615.234	77.8814	615.234	76.7132	615.234	77.2947	615.234	76.6398	615.234	76.8397	615.234	76.5568	615.234	76.6322	615.234	76.5055	615.234	76.6929	615.234	76.5539	615.234	76.938	615.234	76.7534	615.234	77.2534	615.234	77.101	615.234	77.5645	615.234	77.5355	615.234	77.8483	615.234	77.9675	615.234	78.1081	615.234	78.3161	615.234	78.3395	615.234	78.5295	615.234	78.5148	615.234	78.5907
637.207	80.3214	637.207	79.9483	637.207	80.5507	637.207	79.4529	637.207	80.62	637.207	78.8664	637.207	80.5156	637.207	78.233	637.207	80.2254	637.207	77.6052	637.207	79.7406	637.207	77.0259	637.207	79.0643	637.207	76.506	637.207	78.2278	637.207	76.0246	637.207	77.3146	637.207	75.5643	637.207	76.479	637.207	75.1607	637.207	75.9162	637.207	74.9274	637.207	75.7563	637.207	75.0058	637.207	75.9693	637.207	75.44	637.207	76.4061	637.207	76.1115	637.207	76.9104	637.207	76.8252	637.207	77.3753	637.207	77.4229	637.207	77.738	637.207	77.8204	637.207	77.9564	637.207	77.994
659.912	80.4628	659.912	80.1124	659.912	80.6911	659.912	79.6675	659.912	80.7735	659.912	79.1571	659.912	80.6923	659.912	78.6098	659.912	80.4343	659.912	78.0501	659.912	79.9896	659.912	77.4904	659.912	79.3523	659.912	76.9227	659.912	78.5291	659.912	76.3229	659.912	77.5611	659.912	75.6762	659.912	76.557	659.912	75.0226	659.912	75.7167	659.912	74.5015	659.912	75.2745	659.912	74.334	659.912	75.3319	659.912	74.6605	659.912	75.7665	659.912	75.3733	659.912	76.3574	659.912	76.2062	659.912	76.9295	659.912	76.9328	659.912	77.3778	659.912	77.4331	659.912	77.6385	659.912	77.6667
683.35	80.6407	683.35	80.2383	683.35	80.9096	683.35	79.7323	683.35	81.0263	683.35	79.1635	683.35	80.9816	683.35	78.5805	683.35	80.7723	683.35	78.0288	683.35	80.3966	683.35	77.5309	683.35	79.8517	683.35	77.0681	683.35	79.1367	683.35	76.5844	683.35	78.2641	683.35	76.0181	683.35	77.281	683.35	75.3537	683.35	76.3038	683.35	74.6885	683.35	75.5467	683.35	74.2813	683.35	75.2619	683.35	74.4294	683.35	75.5299	683.35	75.1367	683.35	76.1539	683.35	76.0769	683.35	76.846	683.35	76.9225	683.35	77.4058	683.35	77.5051	683.35	77.7316	683.35	77.7736
706.787	81.9753	706.787	81.6029	706.787	82.1924	706.787	81.1013	706.787	82.2392	706.787	80.5008	706.787	82.1154	706.787	79.8301	706.787	81.8329	706.787	79.1169	706.787	81.4081	706.787	78.3907	706.787	80.8554	706.787	77.6739	706.787	80.1818	706.787	76.9642	706.787	79.3879	706.787	76.2311	706.787	78.4768	706.787	75.4485	706.787	77.4808	706.787	74.6624	706.787	76.5126	706.787	74.0551	706.787	75.8022	706.787	73.8931	706.787	75.5775	706.787	74.2728	706.787	75.8065	706.787	74.9798	706.787	76.2146	706.787	75.7113	706.787	76.5516	706.787	76.2786	706.787	76.6973	706.787	76.6107
731.689	82.4213	731.689	82.0951	731.689	82.6092	731.689	81.6494	731.689	82.6517	731.689	81.1179	731.689	82.5437	731.689	80.5381	731.689	82.2763	731.689	79.9308	731.689	81.8386	731.689	79.285	731.689	81.2286	731.689	78.5652	731.689	80.4659	731.689	77.7319	731.689	79.5987	731.689	76.7631	731.689	78.6978	731.689	75.68	731.689	77.8387	731.689	74.597	731.689	77.105	731.689	73.7869	731.689	76.624	731.689	73.6039	731.689	76.5397	731.689	74.1385	731.689	76.8441	731.689	75.0893	731.689	77.3059	731.689	76.0913	731.689	77.6549	731.689	76.9244	731.689	77.732	731.689	77.4861
758.057	82.3188	758.057	82.0436	758.057	82.4649	758.057	81.6544	758.057	82.4781	758.057	81.1829	758.057	82.3578	758.057	80.6717	758.057	82.0998	758.057	80.1551	758.057	81.6958	758.057	79.6351	758.057	81.1393	758.057	79.0735	758.057	80.4366	758.057	78.4092	758.057	79.6149	758.057	77.5873	758.057	78.7163	758.057	76.5891	758.057	77.7815	758.057	75.4744	758.057	76.8597	758.057	74.4626	758.057	76.0868	758.057	73.9767	758.057	75.7429	758.057	74.346	758.057	76.0263	758.057	75.3483	758.057	76.7273	758.057	76.463	758.057	77.4224	758.057	77.3305	758.057	77.8195	758.057	77.797
784.424	82.7995	784.424	82.4566	784.424	83.0196	784.424	82.009	784.424	83.1063	784.424	81.4909	784.424	83.047	784.424	80.9544	784.424	82.823	784.424	80.453	784.424	82.4123	784.424	80.0077	784.424	81.798	784.424	79.5802	784.424	80.9818	784.424	79.0851	784.424	79.9964	784.424	78.4282	784.424	78.9091	784.424	77.544	784.424	77.8099	784.424	76.4301	784.424	76.8035	784.424	75.2299	784.424	76.0386	784.424	74.3822	784.424	75.7243	784.424	74.4743	784.424	75.978	784.424	75.4494	784.424	76.6305	784.424	76.6246	784.424	77.3396	784.424	77.4991	784.424	77.8189	784.424	77.8992
812.256	82.8222	812.256	82.5211	812.256	82.9277	812.256	82.0374	812.256	82.8506	812.256	81.4202	812.256	82.6191	812.256	80.7562	812.256	82.264	812.256	80.1449	812.256	81.8031	812.256	79.6472	812.256	81.2315	812.256	79.2531	812.256	80.5327	812.256	78.9001	812.256	79.7047	812.256	78.5128	812.256	78.7839	812.256	78.0253	812.256	77.8477	812.256	77.3938	812.256	76.9946	812.256	76.6402	812.256	76.3355	812.256	75.9529	812.256	76.0272	812.256	75.7331	812.256	76.235	812.256	76.2357	812.256	76.9067	812.256	77.1501	812.256	77.7018	812.256	77.9598	812.256	78.2553	812.256	78.3591
840.82	82.9494	840.82	82.6225	840.82	83.1169	840.82	82.1665	840.82	83.1098	840.82	81.6136	840.82	82.9346	840.82	80.9908	840.82	82.614	840.82	80.3272	840.82	82.1707	840.82	79.6646	840.82	81.6118	840.82	79.0484	840.82	80.9275	840.82	78.4959	840.82	80.1075	840.82	77.9809	840.82	79.1608	840.82	77.4564	840.82	78.1279	840.82	76.8996	840.82	77.0989	840.82	76.3598	840.82	76.2524	840.82	76.0021	840.82	75.8499	840.82	76.0581	840.82	76.0479	840.82	76.5848	840.82	76.6944	840.82	77.3256	840.82	77.4462	840.82	77.932	840.82	78.0008	840.82	78.1809
870.85	83.3341	870.85	83.0251	870.85	83.4505	870.85	82.538	870.85	83.3812	870.85	81.913	870.85	83.1491	870.85	81.2105	870.85	82.7879	870.85	80.491	870.85	82.3313	870.85	79.7927	870.85	81.7988	870.85	79.1293	870.85	81.19	870.85	78.5029	870.85	80.4929	870.85	77.9117	870.85	79.6896	870.85	77.3431	870.85	78.7577	870.85	76.7712	870.85	77.7024	870.85	76.194	870.85	76.6694	870.85	75.7221	870.85	76.0482	870.85	75.6196	870.85	76.1725	870.85	76.0645	870.85	76.8179	870.85	76.8413	870.85	77.4948	870.85	77.5484	870.85	77.9035	870.85	77.929
901.611	83.3797	901.611	82.9598	901.611	83.6079	901.611	82.3988	901.611	83.6145	901.611	81.7523	901.611	83.4057	901.611	81.0692	901.611	83.0279	901.611	80.3857	901.611	82.5485	901.611	79.7202	901.611	82.0179	901.611	79.0706	901.611	81.445	901.611	78.4178	901.611	80.8104	901.611	77.7412	901.611	80.0874	901.611	77.0367	901.611	79.2355	901.611	76.3371	901.611	78.2036	901.611	75.738	901.611	77.0461	901.611	75.4266	901.611	76.1619	901.611	75.6149	901.611	76.1451	901.611	76.2986	901.611	76.89	901.611	77.1746	901.611	77.7183	901.611	77.8999	901.611	78.216	901.611	78.2736
933.105	84.2222	933.105	83.8669	933.105	84.2897	933.105	83.2289	933.105	84.0805	933.105	82.3593	933.105	83.6105	933.105	81.3857	933.105	82.9091	933.105	80.4916	933.105	82.0419	933.105	79.7953	933.105	81.1314	933.105	79.2352	933.105	80.3399	933.105	78.6336	933.105	79.7767	933.105	77.8579	933.105	79.3959	933.105	76.917	933.105	79.0164	933.105	75.994	933.105	78.4457	933.105	75.3967	933.105	77.6165	933.105	75.3443	933.105	76.7537	933.105	75.7802	933.105	76.4093	933.105	76.484	933.105	76.8426	933.105	77.2367	933.105	77.5751	933.105	77.8501	933.105	78.0811	933.105	78.1676
966.064	84.1439	966.064	83.7936	966.064	84.2934	966.064	83.2422	966.064	84.2405	966.064	82.5023	966.064	83.9778	966.064	81.6252	966.064	83.497	966.064	80.7208	966.064	82.7972	966.064	79.9304	966.064	81.8987	966.064	79.3269	966.064	80.8674	966.064	78.8323	966.064	79.8293	966.064	78.2669	966.064	78.9245	966.064	77.4625	966.064	78.1849	966.064	76.3426	966.064	77.4913	966.064	75.0422	966.064	76.7318	966.064	74.1306	966.064	76.0223	966.064	74.3387	966.064	75.7455	966.064	75.4334	966.064	76.1283	966.064	76.5902	966.064	76.8541	966.064	77.3678	966.064	77.4505	966.064	77.6526
999.756	84.2571	999.756	83.9897	999.756	84.2626	999.756	83.4261	999.756	84.0418	999.756	82.5624	999.756	83.63	999.756	81.4738	999.756	83.0685	999.756	80.3505	999.756	82.3991	999.756	79.4369	999.756	81.6471	999.756	78.8427	999.756	80.8241	999.756	78.4479	999.756	79.9606	999.756	78.0531	999.756	79.1114	999.756	77.5229	999.756	78.2886	999.756	76.7949	999.756	77.4348	999.756	75.8893	999.756	76.5923	999.756	75.061	999.756	76.0901	999.756	74.911	999.756	76.2447	999.756	75.7171	999.756	76.8604	999.756	76.8747	999.756	77.5301	999.756	77.748	999.756	78.0011	999.756	78.1146
1034.91	84.6961	1034.91	84.3514	1034.91	84.7201	1034.91	83.7088	1034.91	84.4171	1034.91	82.7852	1034.91	83.8396	1034.91	81.5921	1034.91	83.1328	1034.91	80.1761	1034.91	82.4904	1034.91	78.7024	1034.91	82.0031	1034.91	77.4981	1034.91	81.5874	1034.91	76.8654	1034.91	81.1205	1034.91	76.78	1034.91	80.557	1034.91	76.9596	1034.91	79.8662	1034.91	77.1069	1034.91	78.9271	1034.91	76.9864	1034.91	77.6234	1034.91	76.4863	1034.91	76.2306	1034.91	75.828	1034.91	75.6981	1034.91	75.7224	1034.91	76.4163	1034.91	76.5424	1034.91	77.4741	1034.91	77.6002	1034.91	78.1528	1034.91	78.2083
1071.53	84.9087	1071.53	84.6463	1071.53	84.939	1071.53	84.1094	1071.53	84.7275	1071.53	83.2577	1071.53	84.2061	1071.53	82.1068	1071.53	83.3058	1071.53	80.7537	1071.53	82.0517	1071.53	79.3749	1071.53	80.67	1071.53	78.1608	1071.53	79.6018	1071.53	77.1464	1071.53	79.1734	1071.53	76.1345	1071.53	79.2083	1071.53	74.9145	1071.53	79.2584	1071.53	73.6689	1071.53	78.9721	1071.53	73.2898	1071.53	78.2293	1071.53	74.2675	1071.53	77.3137	1071.53	75.6492	1071.53	76.903	1071.53	76.6773	1071.53	77.2047	1071.53	77.298	1071.53	77.6826	1071.53	77.6893	1071.53	77.9458	1071.53	77.9264
1109.62	85.1107	1109.62	84.7144	1109.62	85.2551	1109.62	84.0706	1109.62	85.1209	1109.62	83.1621	1109.62	84.682	1109.62	81.9924	1109.62	83.9155	1109.62	80.6187	1109.62	82.7974	1109.62	79.1491	1109.62	81.349	1109.62	77.7573	1109.62	79.7782	1109.62	76.6662	1109.62	78.5837	1109.62	75.9093	1109.62	78.1481	1109.62	75.1476	1109.62	78.159	1109.62	73.9178	1109.62	78.0301	1109.62	72.0887	1109.62	77.4309	1109.62	71.2452	1109.62	76.4627	1109.62	73.3597	1109.62	75.9139	1109.62	75.8424	1109.62	76.4512	1109.62	77.3083	1109.62	77.3491	1109.62	77.926	1109.62	77.899	1109.62	78.0655
1148.44	85.4231	1148.44	84.9335	1148.44	85.5408	1148.44	84.0689	1148.44	85.327	1148.44	82.8493	1148.44	84.8304	1148.44	81.3221	1148.44	84.0573	1148.44	79.6375	1148.44	82.983	1148.44	78.1142	1148.44	81.6351	1148.44	77.0749	1148.44	80.1697	1148.44	76.5774	1148.44	78.8751	1148.44	76.4855	1148.44	77.9935	1148.44	76.5586	1148.44	77.447	1148.44	76.3447	1148.44	76.9372	1148.44	75.2318	1148.44	76.3249	1148.44	72.9479	1148.44	75.7829	1148.44	71.9488	1148.44	75.7052	1148.44	74.6193	1148.44	76.3399	1148.44	77.0599	1148.44	77.3178	1148.44	78.2457	1148.44	78.1129	1148.44	78.4882
1189.45	85.1167	1189.45	84.7165	1189.45	85.2719	1189.45	84.0499	1189.45	85.1684	1189.45	83.0917	1189.45	84.7517	1189.45	81.827	1189.45	83.9547	1189.45	80.2454	1189.45	82.7423	1189.45	78.387	1189.45	81.1786	1189.45	76.5358	1189.45	79.5378	1189.45	75.426	1189.45	78.4182	1189.45	75.5884	1189.45	78.285	1189.45	76.391	1189.45	78.5705	1189.45	76.8548	1189.45	78.3853	1189.45	76.2724	1189.45	77.4158	1189.45	74.034	1189.45	76.032	1189.45	70.6108	1189.45	75.1886	1189.45	72.3888	1189.45	75.4661	1189.45	76.1237	1189.45	76.4724	1189.45	77.9769	1189.45	77.5946	1189.45	78.2826
1231.2	85.0393	1231.2	84.5476	1231.2	85.3032	1231.2	83.8564	1231.2	85.2975	1231.2	82.9745	1231.2	84.9936	1231.2	81.8963	1231.2	84.3827	1231.2	80.5742	1231.2	83.4454	1231.2	78.8854	1231.2	82.1318	1231.2	76.7104	1231.2	80.4056	1231.2	74.3254	1231.2	78.4754	1231.2	73.2321	1231.2	77.3624	1231.2	74.5252	1231.2	77.7886	1231.2	76.4279	1231.2	78.3367	1231.2	77.4508	1231.2	77.855	1231.2	76.8651	1231.2	76.3499	1231.2	74.2694	1231.2	74.9403	1231.2	72.3666	1231.2	74.9138	1231.2	75.2639	1231.2	75.8618	1231.2	77.4345	1231.2	77.0318	1231.2	77.8058
1274.41	85.212	1274.41	84.6195	1274.41	85.673	1274.41	83.969	1274.41	85.8108	1274.41	83.2065	1274.41	85.4769	1274.41	82.2806	1274.41	84.7167	1274.41	81.2008	1274.41	83.7711	1274.41	79.9355	1274.41	82.8359	1274.41	78.3265	1274.41	81.7971	1274.41	76.1645	1274.41	80.3965	1274.41	73.4464	1274.41	78.8231	1274.41	71.4575	1274.41	78.0289	1274.41	72.6452	1274.41	78.1439	1274.41	74.8229	1274.41	78.0121	1274.41	75.5781	1274.41	77.1559	1274.41	74.2853	1274.41	76.2275	1274.41	71.7628	1274.41	76.1856	1274.41	72.7963	1274.41	76.8312	1274.41	75.7363	1274.41	77.399	1274.41	77.2361
1319.82	85.4049	1319.82	85.0031	1319.82	85.3238	1319.82	84.2159	1319.82	84.911	1319.82	83.1739	1319.82	84.6304	1319.82	81.9087	1319.82	84.7994	1319.82	80.3725	1319.82	84.9877	1319.82	78.4818	1319.82	84.5056	1319.82	76.0499	1319.82	83.1991	1319.82	72.7636	1319.82	81.6406	1319.82	69.0026	1319.82	80.3566	1319.82	68.2228	1319.82	79.1293	1319.82	72.3913	1319.82	77.8848	1319.82	76.5338	1319.82	76.7928	1319.82	78.323	1319.82	75.9656	1319.82	77.6138	1319.82	75.8666	1319.82	76.0049	1319.82	76.4463	1319.82	76.9219	1319.82	77.1252	1319.82	78.3416	1319.82	77.8646	1319.82	78.5018
1365.97	83.9683	1365.97	82.5326	1365.97	85.0062	1365.97	80.6763	1365.97	85.8429	1365.97	78.6594	1365.97	86.5569	1365.97	76.9029	1365.97	87.0438	1365.97	75.5376	1365.97	87.0365	1365.97	74.2808	1365.97	85.8648	1365.97	73.3083	1365.97	82.7602	1365.97	73.153	1365.97	77.6457	1365.97	72.9108	1365.97	73.2108	1365.97	71.3119	1365.97	72.2151	1365.97	73.7966	1365.97	72.7545	1365.97	78.8736	1365.97	72.843	1365.97	80.5396	1365.97	71.3859	1365.97	78.1007	1365.97	69.3239	1365.97	70.8024	1365.97	69.3609	1365.97	72.8982	1365.97	70.6652	1365.97	74.952	1365.97	71.8656	1365.97	73.6799
1414.31	85.4061	1414.31	83.8582	1414.31	86.7024	1414.31	81.924	1414.31	87.7038	1414.31	79.3239	1414.31	88.1376	1414.31	75.7368	1414.31	87.7367	1414.31	71.688	1414.31	86.5222	1414.31	70.0066	1414.31	84.561	1414.31	71.9805	1414.31	81.759	1414.31	74.9074	1414.31	78.7584	1414.31	76.4433	1414.31	76.8577	1414.31	75.0519	1414.31	76.7936	1414.31	70.0078	1414.31	77.7555	1414.31	76.5667	1414.31	78.1416	1414.31	80.2296	1414.31	77.8578	1414.31	78.7759	1414.31	77.6483	1414.31	71.0103	1414.31	77.8393	1414.31	51.256	1414.31	77.818	1414.31	65.3771	1414.31	76.6545	1414.31	72.9816
1464.11	86.919	1464.11	85.2246	1464.11	88.0924	1464.11	83.0592	1464.11	88.8158	1464.11	80.6154	1464.11	89.0505	1464.11	78.1795	1464.11	88.5587	1464.11	76.1196	1464.11	87.1777	1464.11	74.8837	1464.11	84.9228	1464.11	75.1482	1464.11	82.0034	1464.11	76.5984	1464.11	79.4378	1464.11	77.6116	1464.11	78.2916	1464.11	76.4327	1464.11	78.8846	1464.11	69.3792	1464.11	79.7613	1464.11	70.0426	1464.11	79.4426	1464.11	76.8092	1464.11	78.4835	1464.11	76.3668	1464.11	78.6656	1464.11	71.9277	1464.11	79.8787	1464.11	68.8484	1464.11	80.3061	1464.11	64.332	1464.11	78.7788	1464.11	73.9752
1515.38	87.7349	1515.38	85.8904	1515.38	88.8744	1515.38	83.6534	1515.38	89.3788	1515.38	81.5828	1515.38	89.3192	1515.38	79.8242	1515.38	88.5069	1515.38	77.9795	1515.38	86.7965	1515.38	75.9218	1515.38	84.5425	1515.38	74.4692	1515.38	82.6951	1515.38	74.4021	1515.38	81.6292	1515.38	75.4982	1515.38	80.7286	1515.38	76.3539	1515.38	80.8117	1515.38	75.0386	1515.38	81.5487	1515.38	67.7644	1515.38	81.1016	1515.38	65.6636	1515.38	79.389	1515.38	72.4501	1515.38	79.1378	1515.38	74.3707	1515.38	80.6106	1515.38	74.6619	1515.38	80.919	1515.38	72.5729	1515.38	79.2511	1515.38	75.3971
1568.85	88.3871	1568.85	86.1498	1568.85	89.4727	1568.85	83.1045	1568.85	89.681	1568.85	80.3272	1568.85	89.3676	1568.85	78.7084	1568.85	88.5296	1568.85	77.8391	1568.85	87.0183	1568.85	76.922	1568.85	85.0486	1568.85	75.6075	1568.85	83.2451	1568.85	73.6801	1568.85	81.8076	1568.85	73.0939	1568.85	80.6877	1568.85	75.5887	1568.85	80.6468	1568.85	77.114	1568.85	80.9342	1568.85	75.4604	1568.85	80.2068	1568.85	72.2508	1568.85	78.4476	1568.85	73.3785	1568.85	78.1359	1568.85	75.2477	1568.85	79.8894	1568.85	75.9541	1568.85	80.5531	1568.85	74.5063	1568.85	79.0918	1568.85	75.8571
1624.51	90.0268	1624.51	88.1606	1624.51	90.7981	1624.51	85.6096	1624.51	90.6678	1624.51	83.0158	1624.51	89.9802	1624.51	80.7072	1624.51	88.6048	1624.51	78.9226	1624.51	86.3374	1624.51	77.8068	1624.51	84.0407	1624.51	77.3613	1624.51	82.8314	1624.51	76.1686	1624.51	81.7369	1624.51	72.429	1624.51	79.7856	1624.51	71.5128	1624.51	79.0158	1624.51	74.3801	1624.51	79.6442	1624.51	73.506	1624.51	79.208	1624.51	71.6327	1624.51	77.3985	1624.51	74.1358	1624.51	77.6614	1624.51	78.1627	1624.51	80.5912	1624.51	79.3372	1624.51	81.9539	1624.51	77.7934	1624.51	81.1312	1624.51	78.753
1681.64	89.8311	1681.64	88.3372	1681.64	90.6816	1681.64	86.6218	1681.64	90.5995	1681.64	84.462	1681.64	89.6403	1681.64	81.3417	1681.64	87.8213	1681.64	78.0351	1681.64	85.1005	1681.64	76.6428	1681.64	82.7452	1681.64	76.8129	1681.64	82.2041	1681.64	76.6917	1681.64	81.9095	1681.64	74.5865	1681.64	81.0481	1681.64	71.1586	1681.64	81.1107	1681.64	75.7557	1681.64	81.2053	1681.64	77.7518	1681.64	79.693	1681.64	75.7404	1681.64	77.3583	1681.64	73.8805	1681.64	78.0259	1681.64	75.8606	1681.64	80.4551	1681.64	77.8312	1681.64	80.7784	1681.64	76.7871	1681.64	78.2393	1681.64	75.2921
1740.97	89.3985	1740.97	87.9329	1740.97	90.0079	1740.97	86.1763	1740.97	89.4325	1740.97	84.1711	1740.97	87.9218	1740.97	81.2369	1740.97	86.0773	1740.97	75.9905	1740.97	84.4157	1740.97	72.6551	1740.97	83.3876	1740.97	77.168	1740.97	82.8307	1740.97	77.9146	1740.97	81.6207	1740.97	74.0339	1740.97	78.8015	1740.97	62.842	1740.97	77.6274	1740.97	70.6369	1740.97	78.4282	1740.97	74.2894	1740.97	76.2682	1740.97	74.9844	1740.97	68.585	1740.97	75.2636	1740.97	72.2477	1740.97	76.8905	1740.97	77.6841	1740.97	77.6575	1740.97	79.0215	1740.97	75.9111	1740.97	77.1996	1740.97	74.5353
1802.49	88.0899	1802.49	86.6413	1802.49	89.0028	1802.49	85.0974	1802.49	88.8512	1802.49	83.2849	1802.49	87.5518	1802.49	81.1279	1802.49	85.7686	1802.49	77.7042	1802.49	83.8436	1802.49	69.3121	1802.49	81.1321	1802.49	72.2694	1802.49	78.9597	1802.49	76.1219	1802.49	79.0355	1802.49	75.3059	1802.49	78.7744	1802.49	74.8387	1802.49	77.0808	1802.49	69.6605	1802.49	77.28	1802.49	68.8531	1802.49	78.7303	1802.49	76.5573	1802.49	76.5498	1802.49	76.7864	1802.49	64.7169	1802.49	76.0466	1802.49	72.3114	1802.49	76.3513	1802.49	74.7444	1802.49	75.3556	1802.49	71.939	1802.49	72.2306
1866.21	87.1544	1866.21	85.7374	1866.21	88.2946	1866.21	83.427	1866.21	88.732	1866.21	80.1026	1866.21	87.683	1866.21	76.7817	1866.21	85.112	1866.21	73.8444	1866.21	82.1433	1866.21	69.2854	1866.21	79.7753	1866.21	68.9193	1866.21	77.765	1866.21	71.003	1866.21	77.9636	1866.21	73.6032	1866.21	79.4942	1866.21	77.3774	1866.21	78.3105	1866.21	75.3755	1866.21	76.3967	1866.21	67.7094	1866.21	77.4109	1866.21	75.9002	1866.21	75.792	1866.21	74.9652	1866.21	68.1475	1866.21	70.6799	1866.21	48.1045	1866.21	70.9817	1866.21	61.4877	1866.21	71.3343	1866.21	68.6113	1866.21	68.9025
1932.13	86.039	1932.13	85.0181	1932.13	86.6048	1932.13	81.8943	1932.13	87.2488	1932.13	75.3745	1932.13	86.7156	1932.13	64.5167	1932.13	84.3159	1932.13	64.8699	1932.13	81.539	1932.13	66.7236	1932.13	80.5344	1932.13	67.2537	1932.13	79.6734	1932.13	65.2991	1932.13	77.8299	1932.13	68.512	1932.13	77.9653	1932.13	74.4668	1932.13	78.1936	1932.13	75.2644	1932.13	75.9186	1932.13	71.2402	1932.13	73.8107	1932.13	69.923	1932.13	73.2442	1932.13	67.6309	1932.13	71.9531	1932.13	62.3949	1932.13	72.0983	1932.13	62.8212	1932.13	75.1935	1932.13	65.3783	1932.13	76.0295	1932.13	72.2563
2000.24	84.8045	2000.24	83.297	2000.24	85.53	2000.24	79.9649	2000.24	85.9242	2000.24	73.6424	2000.24	85.1882	2000.24	59.4284	2000.24	82.742	2000.24	66.1103	2000.24	80.2666	2000.24	67.5645	2000.24	79.4512	2000.24	65.4133	2000.24	78.3972	2000.24	63.0126	2000.24	76.7285	2000.24	69.0207	2000.24	75.8648	2000.24	74.6339	2000.24	74.8758	2000.24	75.6522	2000.24	72.6201	2000.24	73.577	2000.24	69.069	2000.24	70.1838	2000.24	64.6335	2000.24	67.3571	2000.24	60.6615	2000.24	69.3436	2000.24	65.511	2000.24	70.2186	2000.24	71.7212	2000.24	67.5858	2000.24	72.6519	2000.24	69.2191
2070.56	85.3234	2070.56	82.7712	2070.56	85.8363	2070.56	77.1016	2070.56	85.0896	2070.56	67.195	2070.56	83.3138	2070.56	69.0472	2070.56	80.9158	2070.56	72.1784	2070.56	80.1028	2070.56	70.5884	2070.56	79.6393	2070.56	60.2515	2070.56	77.605	2070.56	60.1187	2070.56	75.5902	2070.56	68.265	2070.56	73.8456	2070.56	73.5582	2070.56	70.489	2070.56	75.5916	2070.56	64.5929	2070.56	74.3761	2070.56	56.0316	2070.56	70.5038	2070.56	65.2779	2070.56	64.3321	2070.56	67.9901	2070.56	60.7791	2070.56	69.1882	2070.56	65.0215	2070.56	70.4751	2070.56	41.3629	2070.56	68.7174	2070.56	62.5826
2143.8	85.2553	2143.8	83.0956	2143.8	86.0303	2143.8	79.6235	2143.8	85.2912	2143.8	74.7335	2143.8	83.4195	2143.8	72.3022	2143.8	81.6289	2143.8	73.199	2143.8	80.4748	2143.8	71.4396	2143.8	78.7685	2143.8	65.2047	2143.8	75.6455	2143.8	69.2627	2143.8	73.751	2143.8	74.2439	2143.8	71.7906	2143.8	74.6855	2143.8	63.3769	2143.8	72.7885	2143.8	49.0359	2143.8	69.9896	2143.8	64.0933	2143.8	58.0766	2143.8	66.7237	2143.8	61.7348	2143.8	68.9609	2143.8	65.4769	2143.8	71.357	2143.8	65.2161	2143.8	72.7621	2143.8	59.897	2143.8	72.6391	2143.8	69.0451
2219.24	83.9525	2219.24	83.1643	2219.24	84.7087	2219.24	81.3673	2219.24	84.9645	2219.24	78.4398	2219.24	83.5777	2219.24	75.4641	2219.24	80.9703	2219.24	72.2469	2219.24	78.6546	2219.24	68.5252	2219.24	75.6161	2219.24	66.5559	2219.24	71.1427	2219.24	67.2954	2219.24	70.0727	2219.24	68.8897	2219.24	69.6708	2219.24	70.4798	2219.24	67.8199	2219.24	70.8805	2219.24	66.1701	2219.24	69.0668	2219.24	65.9559	2219.24	66.7027	2219.24	64.94	2219.24	65.0874	2219.24	65.3717	2219.24	61.8676	2219.24	69.1716	2219.24	48.9366	2219.24	71.2039	2219.24	61.5697	2219.24	71.1527	2219.24	68.7883
2297.61	84.5503	2297.61	83.5354	2297.61	84.4951	2297.61	81.7956	2297.61	83.8392	2297.61	79.6679	2297.61	82.714	2297.61	76.5388	2297.61	80.2921	2297.61	71.9462	2297.61	76.909	2297.61	67.8767	2297.61	73.7376	2297.61	67.4075	2297.61	71.1884	2297.61	68.3616	2297.61	71.2937	2297.61	68.9655	2297.61	70.8473	2297.61	70.4304	2297.61	68.2246	2297.61	70.888	2297.61	65.613	2297.61	68.4554	2297.61	65.431	2297.61	66.9275	2297.61	63.5805	2297.61	64.8947	2297.61	64.7641	2297.61	58.6451	2297.61	68.3605	2297.61	55.7676	2297.61	70.1591	2297.61	62.5931	2297.61	70.4816	2297.61	68.6273
2378.17	85.6678	2378.17	84.4725	2378.17	85.6556	2378.17	82.7639	2378.17	83.9227	2378.17	80.1008	2378.17	81.4973	2378.17	76.096	2378.17	79.192	2378.17	72.6037	2378.17	75.8302	2378.17	70.9652	2378.17	71.9918	2378.17	68.6317	2378.17	70.4169	2378.17	66.0658	2378.17	71.9269	2378.17	66.0418	2378.17	70.4809	2378.17	66.9552	2378.17	64.8541	2378.17	70.0349	2378.17	65.858	2378.17	70.1153	2378.17	64.4985	2378.17	65.6616	2378.17	58.0073	2378.17	63.1712	2378.17	61.4763	2378.17	56.1	2378.17	67.0034	2378.17	58.3404	2378.17	70.2691	2378.17	65.7572	2378.17	72.1504	2378.17	70.8209
2462.4	85.072	2462.4	84.6988	2462.4	84.994	2462.4	83.12	2462.4	83.7326	2462.4	79.9334	2462.4	80.6766	2462.4	76.6171	2462.4	77.3752	2462.4	73.4531	2462.4	74.6409	2462.4	68.693	2462.4	71.8135	2462.4	64.4417	2462.4	71.3904	2462.4	66.7444	2462.4	73.1317	2462.4	68.6549	2462.4	72.1713	2462.4	68.8895	2462.4	67.2342	2462.4	67.7617	2462.4	65.1409	2462.4	67.8095	2462.4	63.5651	2462.4	66.8587	2462.4	57.2043	2462.4	63.6145	2462.4	56.3801	2462.4	56.2151	2462.4	64.8527	2462.4	56.8478	2462.4	69.9828	2462.4	66.4188	2462.4	72.5158	2462.4	71.1976
2548.83	85.4255	2548.83	84.7189	2548.83	84.9918	2548.83	82.9668	2548.83	83.3995	2548.83	80.5272	2548.83	80.393	2548.83	77.4756	2548.83	76.2676	2548.83	72.6616	2548.83	73.1202	2548.83	63.7366	2548.83	72.0567	2548.83	57.1297	2548.83	72.63	2548.83	65.2391	2548.83	73.1824	2548.83	68.828	2548.83	71.9135	2548.83	69.0545	2548.83	66.8551	2548.83	66.8101	2548.83	65.797	2548.83	68.2155	2548.83	65.6806	2548.83	67.5114	2548.83	61.396	2548.83	64.6894	2548.83	58.253	2548.83	59.4844	2548.83	61.0526	2548.83	56.1097	2548.83	67.7754	2548.83	63.1198	2548.83	70.7641	2548.83	68.7743
2638.92	86.3224	2638.92	85.1724	2638.92	85.7762	2638.92	82.9988	2638.92	83.5098	2638.92	80.4197	2638.92	79.9998	2638.92	76.3105	2638.92	76.5984	2638.92	66.5927	2638.92	73.204	2638.92	62.115	2638.92	72.9154	2638.92	67.943	2638.92	74.0393	2638.92	68.9277	2638.92	73.9876	2638.92	68.6923	2638.92	72.0784	2638.92	71.3877	2638.92	58.7113	2638.92	70.8435	2638.92	66.888	2638.92	66.659	2638.92	66.4977	2638.92	69.2382	2638.92	60.8787	2638.92	69.2427	2638.92	60.0827	2638.92	64.6056	2638.92	60.8231	2638.92	51.7961	2638.92	69.0696	2638.92	59.9952	2638.92	71.1441	2638.92	67.5236
2731.93	86.358	2731.93	85.4574	2731.93	85.9035	2731.93	83.432	2731.93	83.6286	2731.93	79.6059	2731.93	79.2133	2731.93	72.2412	2731.93	75.5583	2731.93	60.46	2731.93	74.9989	2731.93	63.1046	2731.93	74.6318	2731.93	66.1283	2731.93	76.7178	2731.93	70.3441	2731.93	76.8809	2731.93	72.6699	2731.93	74.4122	2731.93	72.1497	2731.93	65.4573	2731.93	71.3503	2731.93	63.2952	2731.93	69.3901	2731.93	66.4907	2731.93	66.7201	2731.93	62.8993	2731.93	69.0323	2731.93	58.4704	2731.93	67.2489	2731.93	59.7356	2731.93	50.3845	2731.93	69.6075	2731.93	59.2759	2731.93	71.3032	2731.93	66.6065
2828.61	86.6017	2828.61	85.4345	2828.61	86.1441	2828.61	83.0932	2828.61	83.5985	2828.61	79.0612	2828.61	78.6228	2828.61	71.4394	2828.61	74.3742	2828.61	61.3844	2828.61	75.1956	2828.61	68.1598	2828.61	75.2544	2828.61	70.3411	2828.61	77.4757	2828.61	72.1681	2828.61	77.9086	2828.61	71.4572	2828.61	74.1988	2828.61	69.3813	2828.61	62.0202	2828.61	72.7838	2828.61	63.3427	2828.61	71.306	2828.61	66.3414	2828.61	67.1894	2828.61	62.8373	2828.61	67.3636	2828.61	62.1429	2828.61	67.0174	2828.61	59.7351	2828.61	55.7713	2828.61	70.2332	2828.61	62.1459	2828.61	70.7372	2828.61	64.8214
2928.22	86.9599	2928.22	85.2515	2928.22	86.5907	2928.22	82.259	2928.22	83.8078	2928.22	77.9327	2928.22	78.1402	2928.22	69.4593	2928.22	74.2144	2928.22	64.3442	2928.22	76.8369	2928.22	70.6926	2928.22	76.7275	2928.22	72.9771	2928.22	78.1249	2928.22	72.9108	2928.22	78.1719	2928.22	73.3498	2928.22	74.9934	2928.22	73.257	2928.22	66.8132	2928.22	69.701	2928.22	61.8825	2928.22	71.7153	2928.22	67.34	2928.22	70.8857	2928.22	66.1675	2928.22	66.7812	2928.22	62.0552	2928.22	66.8765	2928.22	60.0209	2928.22	55.7219	2928.22	69.948	2928.22	61.1275	2928.22	70.3753	2928.22	65.1535
3031.49	86.948	3031.49	85.3333	3031.49	86.9057	3031.49	82.5268	3031.49	83.9961	3031.49	77.315	3031.49	77.2342	3031.49	64.7732	3031.49	74.2655	3031.49	70.1679	3031.49	77.9273	3031.49	74.4461	3031.49	78.4817	3031.49	74.2325	3031.49	79.5659	3031.49	73.6894	3031.49	79.946	3031.49	74.2711	3031.49	77.1391	3031.49	73.774	3031.49	70.0775	3031.49	73.4234	3031.49	62.8321	3031.49	72.0068	3031.49	64.8377	3031.49	71.5489	3031.49	66.1425	3031.49	69.3986	3031.49	65.9032	3031.49	65.9844	3031.49	62.4468	3031.49	59.8561	3031.49	69.8046	3031.49	62.0934	3031.49	69.7243	3031.49	66.434
3138.43	86.7327	3138.43	84.9217	3138.43	87.1207	3138.43	82.0649	3138.43	84.6475	3138.43	75.7247	3138.43	76.7566	3138.43	62.586	3138.43	74.8578	3138.43	74.2135	3138.43	78.3244	3138.43	75.0728	3138.43	78.2681	3138.43	72.9198	3138.43	79.7945	3138.43	74.2713	3138.43	80.7496	3138.43	75.2143	3138.43	78.9702	3138.43	74.3541	3138.43	72.99	3138.43	74.0427	3138.43	63.8547	3138.43	71.8806	3138.43	64.8584	3138.43	71.8421	3138.43	66.6254	3138.43	70.8372	3138.43	68.285	3138.43	69.157	3138.43	62.5133	3138.43	62.7783	3138.43	70.0308	3138.43	59.9757	3138.43	70.5676	3138.43	66.4464
3249.02	86.882	3249.02	85.4137	3249.02	86.7479	3249.02	81.3009	3249.02	84.39	3249.02	70.6555	3249.02	76.7027	3249.02	71.0594	3249.02	75.6515	3249.02	75.3702	3249.02	80.2592	3249.02	74.8865	3249.02	79.0861	3249.02	75.6621	3249.02	78.9688	3249.02	74.7457	3249.02	79.6611	3249.02	74.9306	3249.02	77.581	3249.02	71.8838	3249.02	73.3356	3249.02	71.656	3249.02	64.6279	3249.02	73.6519	3249.02	62.8586	3249.02	71.0735	3249.02	66.0699	3249.02	71.102	3249.02	68.091	3249.02	69.1291	3249.02	63.8976	3249.02	65.2838	3249.02	71.2644	3249.02	55.9841	3249.02	70.1273	3249.02	67.3868
3363.28	87.0593	3363.28	85.0589	3363.28	87.1456	3363.28	80.1619	3363.28	84.3397	3363.28	68.5189	3363.28	75.9296	3363.28	73.2039	3363.28	76.1778	3363.28	74.9671	3363.28	81.0681	3363.28	76.2152	3363.28	80.457	3363.28	75.0658	3363.28	79.4632	3363.28	71.6805	3363.28	79.4976	3363.28	72.4072	3363.28	79.387	3363.28	74.2201	3363.28	77.927	3363.28	71.6371	3363.28	66.8367	3363.28	72.8931	3363.28	66.2227	3363.28	73.0848	3363.28	68.3617	3363.28	70.6862	3363.28	67.216	3363.28	69.3747	3363.28	63.8767	3363.28	65.0771	3363.28	69.4209	3363.28	50.0734	3363.28	69.0697	3363.28	66.7549
3481.93	86.9075	3481.93	85.1911	3481.93	87.1193	3481.93	79.416	3481.93	84.7674	3481.93	70.7843	3481.93	74.1281	3481.93	75.4704	3481.93	78.1262	3481.93	77.2253	3481.93	82.0084	3481.93	77.5285	3481.93	81.8558	3481.93	76.5813	3481.93	80.7668	3481.93	76.0579	3481.93	81.3589	3481.93	76.195	3481.93	82.1059	3481.93	76.6323	3481.93	79.5644	3481.93	72.5611	3481.93	66.0248	3481.93	70.874	3481.93	69.1316	3481.93	73.7014	3481.93	67.0674	3481.93	70.8857	3481.93	65.6888	3481.93	70.5158	3481.93	65.659	3481.93	66.4856	3481.93	68.5457	3481.93	53.7034	3481.93	69.7882	3481.93	65.281
3604.98	87.0404	3604.98	85.1399	3604.98	86.4777	3604.98	78.5153	3604.98	84.9726	3604.98	75.1766	3604.98	75.3322	3604.98	78.1115	3604.98	79.4514	3604.98	77.8652	3604.98	83.5257	3604.98	76.8978	3604.98	82.1303	3604.98	77.6651	3604.98	81.7613	3604.98	77.9689	3604.98	83.2153	3604.98	76.7688	3604.98	83.6712	3604.98	76.0493	3604.98	79.182	3604.98	73.7162	3604.98	65.9798	3604.98	71.9769	3604.98	68.91	3604.98	73.1904	3604.98	67.4241	3604.98	72.0635	3604.98	67.3732	3604.98	69.7225	3604.98	66.4132	3604.98	68.9631	3604.98	68.7831	3604.98	54.6291	3604.98	70.3882	3604.98	63.9771
3732.42	87.8027	3732.42	84.954	3732.42	86.7572	3732.42	76.9091	3732.42	84.0379	3732.42	77.5584	3732.42	76.4731	3732.42	77.6554	3732.42	78.2508	3732.42	76.4464	3732.42	84.2988	3732.42	78.9981	3732.42	83.3636	3732.42	78.8318	3732.42	82.6801	3732.42	75.884	3732.42	84.0338	3732.42	75.1051	3732.42	83.8822	3732.42	75.6214	3732.42	77.8836	3732.42	73.6797	3732.42	59.2047	3732.42	72.4237	3732.42	65.2993	3732.42	72.2327	3732.42	67.1471	3732.42	72.2912	3732.42	66.9538	3732.42	68.4871	3732.42	64.9249	3732.42	68.4951	3732.42	70.3648	3732.42	53.5288	3732.42	70.7744	3732.42	65.3268
3863.53	87.5012	3863.53	83.3894	3863.53	87.0222	3863.53	78.2805	3863.53	83.7018	3863.53	78.4362	3863.53	75.0002	3863.53	77.6026	3863.53	78.7552	3863.53	80.4368	3863.53	84.3246	3863.53	79.8576	3863.53	83.859	3863.53	78.2642	3863.53	82.8548	3863.53	77.748	3863.53	83.9122	3863.53	76.9732	3863.53	82.4255	3863.53	76.1686	3863.53	73.8655	3863.53	74.7787	3863.53	66.4175	3863.53	71.9201	3863.53	63.2487	3863.53	73.4287	3863.53	69.0123	3863.53	71.6267	3863.53	69.617	3863.53	68.044	3863.53	63.2631	3863.53	66.6486	3863.53	69.6127	3863.53	58.2094	3863.53	68.4335	3863.53	63.0193
3999.76	87.7227	3999.76	83.7425	3999.76	87.2984	3999.76	80.0529	3999.76	83.8902	3999.76	78.3094	3999.76	75.2374	3999.76	78.8671	3999.76	78.7162	3999.76	80.2441	3999.76	84.4348	3999.76	79.2206	3999.76	83.6089	3999.76	77.9393	3999.76	82.0391	3999.76	76.2738	3999.76	81.8586	3999.76	74.8597	3999.76	80.8166	3999.76	74.2822	3999.76	78.3319	3999.76	73.7034	3999.76	72.1266	3999.76	71.5103	3999.76	68.9648	3999.76	71.7415	3999.76	70.9904	3999.76	72.8517	3999.76	68.0887	3999.76	67.7038	3999.76	64.111	3999.76	66.0333	3999.76	70.0976	3999.76	56.9895	3999.76	66.9848	3999.76	65.8872
4141.11	87.3866	4141.11	83.3431	4141.11	87.7738	4141.11	80.8938	4141.11	83.6314	4141.11	77.7026	4141.11	76.8748	4141.11	79.9163	4141.11	77.3653	4141.11	80.898	4141.11	84.4755	4141.11	79.6435	4141.11	83.7194	4141.11	77.967	4141.11	81.8974	4141.11	75.7164	4141.11	80.7791	4141.11	72.2366	4141.11	79.902	4141.11	72.4028	4141.11	79.2237	4141.11	73.6252	4141.11	71.2785	4141.11	72.9334	4141.11	64.7074	4141.11	70.9141	4141.11	70.7278	4141.11	72.3276	4141.11	68.2219	4141.11	69.5644	4141.11	64.1723	4141.11	63.024	4141.11	69.1782	4141.11	53.4989	4141.11	68.977	4141.11	66.0953
4286.87	86.9843	4286.87	83.9184	4286.87	87.6607	4286.87	80.8544	4286.87	83.7939	4286.87	77.9568	4286.87	75.6414	4286.87	80.8799	4286.87	78.529	4286.87	81.0014	4286.87	84.2411	4286.87	78.197	4286.87	83.3603	4286.87	74.8187	4286.87	80.9378	4286.87	76.4901	4286.87	79.9417	4286.87	77.0023	4286.87	79.6526	4286.87	75.102	4286.87	79.3078	4286.87	69.6473	4286.87	70.4499	4286.87	72.4864	4286.87	67.649	4286.87	71.0733	4286.87	65.7226	4286.87	72.8497	4286.87	67.9978	4286.87	71.0615	4286.87	65.8749	4286.87	65.771	4286.87	69.5081	4286.87	46.1608	4286.87	69.295	4286.87	61.901
4438.48	87.0386	4438.48	84.3334	4438.48	87.9665	4438.48	80.6629	4438.48	84.1126	4438.48	78.7028	4438.48	76.0162	4438.48	81.6506	4438.48	78.5333	4438.48	80.3307	4438.48	84.3972	4438.48	78.8705	4438.48	83.6673	4438.48	78.136	4438.48	81.2669	4438.48	76.2554	4438.48	81.1089	4438.48	73.2377	4438.48	81.0777	4438.48	73.8959	4438.48	80.0723	4438.48	75.0215	4438.48	71.9443	4438.48	72.5501	4438.48	65.382	4438.48	73.1603	4438.48	69.2848	4438.48	70.8394	4438.48	49.4959	4438.48	72.1568	4438.48	64.8567	4438.48	66.1651	4438.48	70.6003	4438.48	57.6115	4438.48	65.3854	4438.48	64.1125
4594.48	86.8365	4594.48	84.9818	4594.48	87.8247	4594.48	80.0141	4594.48	83.9155	4594.48	80.3632	4594.48	77.1139	4594.48	81.4582	4594.48	77.5654	4594.48	80.3	4594.48	83.5511	4594.48	79.9372	4594.48	84.1043	4594.48	78.1746	4594.48	80.8049	4594.48	77.8678	4594.48	81.1845	4594.48	77.7201	4594.48	81.4398	4594.48	74.4481	4594.48	78.8709	4594.48	71.962	4594.48	72.6906	4594.48	71.4342	4594.48	69.526	4594.48	72.716	4594.48	69.8993	4594.48	71.921	4594.48	66.318	4594.48	71.8534	4594.48	66.2548	4594.48	67.1752	4594.48	67.0054	4594.48	59.3507	4594.48	64.2563	4594.48	60.8315
4757.08	87.045	4757.08	85.2587	4757.08	87.5333	4757.08	80.3216	4757.08	84.3485	4757.08	82.2976	4757.08	75.9953	4757.08	82.0873	4757.08	79.8368	4757.08	80.962	4757.08	83.2997	4757.08	80.9735	4757.08	82.6031	4757.08	80.2235	4757.08	80.6311	4757.08	77.9829	4757.08	81.5639	4757.08	75.9415	4757.08	80.9228	4757.08	74.8892	4757.08	78.3439	4757.08	74.7169	4757.08	74.4803	4757.08	71.8245	4757.08	71.5672	4757.08	73.0393	4757.08	69.2199	4757.08	72.5375	4757.08	68.4883	4757.08	71.8163	4757.08	66.211	4757.08	66.9408	4757.08	64.7411	4757.08	58.1283	4757.08	69.5195	4757.08	65.5456
4924.8	86.8288	4924.8	85.0386	4924.8	87.2474	4924.8	80.5284	4924.8	84.7006	4924.8	82.5663	4924.8	77.0046	4924.8	82.1256	4924.8	79.8763	4924.8	82.4279	4924.8	83.4818	4924.8	81.6354	4924.8	82.3509	4924.8	79.1168	4924.8	79.3491	4924.8	77.1628	4924.8	81.1191	4924.8	76.5465	4924.8	79.5121	4924.8	73.138	4924.8	76.8983	4924.8	72.3604	4924.8	73.7744	4924.8	71.0534	4924.8	71.7431	4924.8	70.993	4924.8	68.9931	4924.8	71.8399	4924.8	65.2137	4924.8	71.5735	4924.8	63.8383	4924.8	69.1494	4924.8	67.5042	4924.8	56.8191	4924.8	68.7547	4924.8	59.9695
5098.39	87.2807	5098.39	84.8323	5098.39	86.6335	5098.39	81.4311	5098.39	84.2418	5098.39	82.5099	5098.39	78.88	5098.39	82.94	5098.39	79.3475	5098.39	83.0502	5098.39	83.4567	5098.39	80.8642	5098.39	83.6421	5098.39	78.8372	5098.39	79.5945	5098.39	75.2274	5098.39	80.2761	5098.39	74.2104	5098.39	78.9052	5098.39	72.8613	5098.39	78.5818	5098.39	71.1013	5098.39	74.6857	5098.39	70.3248	5098.39	70.8529	5098.39	68.9733	5098.39	70.6241	5098.39	70.3364	5098.39	67.0957	5098.39	69.6221	5098.39	62.428	5098.39	67.2631	5098.39	69.6663	5098.39	54.2977	5098.39	67.0897	5098.39	62.0485
5277.83	87.4272	5277.83	84.7547	5277.83	86.5392	5277.83	82.0029	5277.83	84.4372	5277.83	82.3231	5277.83	80.1543	5277.83	83.5685	5277.83	80.5858	5277.83	83.0103	5277.83	82.9009	5277.83	79.907	5277.83	83.7498	5277.83	76.7113	5277.83	79.8209	5277.83	75.1555	5277.83	80.2348	5277.83	73.9073	5277.83	78.3651	5277.83	71.7968	5277.83	79.4516	5277.83	71.0931	5277.83	74.2905	5277.83	71.1103	5277.83	67.1033	5277.83	67.8983	5277.83	69.7906	5277.83	67.8704	5277.83	62.0028	5277.83	68.1836	5277.83	60.5673	5277.83	67.3567	5277.83	69.1647	5277.83	58.4792	5277.83	67.0866	5277.83	64.0622
5463.87	87.9759	5463.87	85.4626	5463.87	86.863	5463.87	82.2396	5463.87	83.8503	5463.87	82.1877	5463.87	81.3896	5463.87	83.9856	5463.87	80.5113	5463.87	82.3666	5463.87	81.6461	5463.87	78.8923	5463.87	82.884	5463.87	76.5495	5463.87	78.7571	5463.87	74.5834	5463.87	78.628	5463.87	71.8209	5463.87	78.1357	5463.87	71.7327	5463.87	78.2727	5463.87	68.1045	5463.87	73.0774	5463.87	69.1295	5463.87	66.0205	5463.87	69.1557	5463.87	68.7316	5463.87	67.4962	5463.87	64.3081	5463.87	66.9668	5463.87	58.7166	5463.87	64.8706	5463.87	67.6493	5463.87	49.5881	5463.87	67.2462	5463.87	62.7205
5656.49	88.4099	5656.49	85.7661	5656.49	86.6476	5656.49	82.0447	5656.49	83.3983	5656.49	83.8929	5656.49	82.4157	5656.49	84.2009	5656.49	81.6991	5656.49	81.3751	5656.49	80.7304	5656.49	78.8184	5656.49	82.7244	5656.49	75.5784	5656.49	80.0302	5656.49	74.7714	5656.49	76.7284	5656.49	73.2867	5656.49	76.2969	5656.49	71.8123	5656.49	76.5516	5656.49	70.5442	5656.49	69.7931	5656.49	68.8676	5656.49	65.8096	5656.49	68.535	5656.49	66.2075	5656.49	67.2409	5656.49	60.9234	5656.49	66.1884	5656.49	63.0684	5656.49	66.1251	5656.49	68.7141	5656.49	58.8902	5656.49	66.2808	5656.49	60.8942
5856.45	88.7556	5856.45	85.9353	5856.45	86.8713	5856.45	81.9284	5856.45	82.7002	5856.45	84.8245	5856.45	83.9317	5856.45	84.028	5856.45	82.3238	5856.45	81.0447	5856.45	80.3755	5856.45	78.6049	5856.45	80.3585	5856.45	75.8351	5856.45	79.804	5856.45	73.1577	5856.45	78.5749	5856.45	72.1865	5856.45	78.9689	5856.45	70.8874	5856.45	75.2975	5856.45	70.0266	5856.45	69.4749	5856.45	68.3439	5856.45	58.4984	5856.45	68.6501	5856.45	63.604	5856.45	68.1004	5856.45	42.2455	5856.45	64.7865	5856.45	61.958	5856.45	66.6614	5856.45	68.4516	5856.45	62.2358	5856.45	66.9763	5856.45	63.8852
6062.99	89.4907	6062.99	85.6155	6062.99	87.6049	6062.99	82.242	6062.99	81.6007	6062.99	85.2012	6062.99	84.3835	6062.99	83.6104	6062.99	83.4084	6062.99	81.1295	6062.99	79.9655	6062.99	78.4647	6062.99	80.2115	6062.99	74.4071	6062.99	79.0037	6062.99	73.6011	6062.99	78.2776	6062.99	70.3022	6062.99	77.5964	6062.99	68.2829	6062.99	72.1249	6062.99	69.8334	6062.99	68.3188	6062.99	67.5853	6062.99	67.4215	6062.99	68.3524	6062.99	59.2665	6062.99	70.023	6062.99	61.0918	6062.99	65.4451	6062.99	58.0594	6062.99	64.5499	6062.99	68.3643	6062.99	61.3672	6062.99	67.1672	6062.99	63.7342
6276.86	89.8928	6276.86	85.2836	6276.86	88.2698	6276.86	82.8719	6276.86	81.7377	6276.86	84.9644	6276.86	84.3544	6276.86	83.5299	6276.86	83.2174	6276.86	80.9782	6276.86	79.6038	6276.86	77.4379	6276.86	80.1774	6276.86	74.6546	6276.86	79.5778	6276.86	71.469	6276.86	78.1992	6276.86	72.8217	6276.86	78.1136	6276.86	69.557	6276.86	74.6057	6276.86	68.8072	6276.86	70.5756	6276.86	68.7067	6276.86	67.8357	6276.86	68.0982	6276.86	67.5371	6276.86	69.2294	6276.86	60.2146	6276.86	67.8207	6276.86	57.0836	6276.86	64.1535	6276.86	66.9934	6276.86	61.8798	6276.86	67.2482	6276.86	60.8996
6498.05	90.154	6498.05	84.6088	6498.05	89.0494	6498.05	84.3564	6498.05	81.5797	6498.05	84.8111	6498.05	84.9546	6498.05	83.4806	6498.05	83.8196	6498.05	80.9452	6498.05	77.2159	6498.05	76.2289	6498.05	80.16	6498.05	75.4445	6498.05	79.7422	6498.05	73.2124	6498.05	78.1536	6498.05	70.8838	6498.05	78.6509	6498.05	70.0293	6498.05	76.3186	6498.05	67.8762	6498.05	71.6008	6498.05	67.6506	6498.05	63.9967	6498.05	66.7515	6498.05	65.6367	6498.05	69.386	6498.05	56.3698	6498.05	69.7027	6498.05	55.8709	6498.05	67.3082	6498.05	68.1919	6498.05	65.7819	6498.05	64.6207	6498.05	63.9205
6727.29	90.2126	6727.29	83.8688	6727.29	89.5345	6727.29	85.1112	6727.29	81.6864	6727.29	85.413	6727.29	85.1878	6727.29	84.0798	6727.29	84.6993	6727.29	80.2076	6727.29	76.7691	6727.29	77.2572	6727.29	78.4114	6727.29	74.1605	6727.29	78.2954	6727.29	72.8013	6727.29	76.2074	6727.29	70.9941	6727.29	77.2198	6727.29	68.9608	6727.29	76.3964	6727.29	68.3328	6727.29	72.4129	6727.29	65.2885	6727.29	67.9521	6727.29	64.7861	6727.29	64.1535	6727.29	66.8604	6727.29	59.7836	6727.29	68.9173	6727.29	59.0604	6727.29	68.8216	6727.29	68.0415	6727.29	66.5218	6727.29	64.6879	6727.29	64.195
6964.6	89.7218	6964.6	83.5068	6964.6	90.1456	6964.6	85.4579	6964.6	82.6791	6964.6	86.3564	6964.6	85.1262	6964.6	84.0908	6964.6	84.9164	6964.6	79.3999	6964.6	76.8447	6964.6	76.7711	6964.6	76.3319	6964.6	73.4909	6964.6	76.6925	6964.6	70.7461	6964.6	74.2257	6964.6	69.3145	6964.6	75.4737	6964.6	67.2151	6964.6	74.6765	6964.6	67.6568	6964.6	72.2277	6964.6	66.1575	6964.6	68.279	6964.6	62.1461	6964.6	62.1837	6964.6	64.503	6964.6	61.6159	6964.6	67.3573	6964.6	61.972	6964.6	69.058	6964.6	68.2211	6964.6	68.0895	6964.6	63.8896	6964.6	63.6312
7209.96	88.5574	7209.96	85.3897	7209.96	89.885	7209.96	86.8477	7209.96	83.8858	7209.96	86.3382	7209.96	85.1469	7209.96	82.1531	7209.96	84.8821	7209.96	78.8166	7209.96	77.747	7209.96	76.2134	7209.96	76.346	7209.96	75.5743	7209.96	77.0732	7209.96	74.7142	7209.96	71.6739	7209.96	71.6131	7209.96	68.6121	7209.96	69.8972	7209.96	71.6252	7209.96	68.5654	7209.96	70.1006	7209.96	66.6495	7209.96	66.3248	7209.96	65.0636	7209.96	56.4234	7209.96	64.0533	7209.96	60.1727	7209.96	68.9058	7209.96	51.2002	7209.96	69.2307	7209.96	66.4486	7209.96	68.0084	7209.96	61.6315	7209.96	63.392
7464.11	89.0195	7464.11	86.0746	7464.11	89.466	7464.11	85.38	7464.11	84.1224	7464.11	85.9282	7464.11	85.481	7464.11	82.4486	7464.11	84.6911	7464.11	80.2294	7464.11	77.4431	7464.11	76.859	7464.11	75.5841	7464.11	74.8574	7464.11	77.7775	7464.11	71.6341	7464.11	75.2102	7464.11	69.7327	7464.11	75.4495	7464.11	66.8643	7464.11	73.1023	7464.11	67.9309	7464.11	67.719	7464.11	65.4343	7464.11	67.1106	7464.11	64.483	7464.11	57.1997	7464.11	59.0186	7464.11	60.9515	7464.11	66.0928	7464.11	51.605	7464.11	67.4919	7464.11	67.6289	7464.11	67.3879	7464.11	60.4365	7464.11	60.0728
7727.78	89.2467	7727.78	84.5995	7727.78	89.3235	7727.78	86.0795	7727.78	84.3211	7727.78	86.304	7727.78	86.2398	7727.78	83.3901	7727.78	85.1314	7727.78	78.4007	7727.78	77.0372	7727.78	75.9326	7727.78	74.7783	7727.78	72.1421	7727.78	79.2531	7727.78	69.0343	7727.78	76.8935	7727.78	66.3606	7727.78	76.2482	7727.78	65.6786	7727.78	75.4275	7727.78	66.4666	7727.78	72.3074	7727.78	65.0903	7727.78	66.6356	7727.78	66.1573	7727.78	58.9914	7727.78	59.5228	7727.78	58.7413	7727.78	63.2975	7727.78	50.1493	7727.78	66.0592	7727.78	65.6508	7727.78	65.6547	7727.78	59.6521	7727.78	62.5757
8000.24	88.7095	8000.24	84.7967	8000.24	89.2384	8000.24	87.8539	8000.24	84.239	8000.24	86.8308	8000.24	86.0894	8000.24	81.7359	8000.24	85.8784	8000.24	76.9357	8000.24	76.8922	8000.24	75.3708	8000.24	72.5898	8000.24	72.2745	8000.24	78.4364	8000.24	72.4327	8000.24	77.1281	8000.24	69.5305	8000.24	74.5689	8000.24	69.4315	8000.24	75.1526	8000.24	67.8613	8000.24	73.7566	8000.24	65.4876	8000.24	67.687	8000.24	66.854	8000.24	59.1475	8000.24	64.6443	8000.24	59.2293	8000.24	68.8963	8000.24	56.0586	8000.24	67.6429	8000.24	63.3418	8000.24	67.091	8000.24	56.5942	8000.24	63.6743
8282.23	89.2405	8282.23	86.1299	8282.23	87.588	8282.23	88.386	8282.23	85.5487	8282.23	85.2725	8282.23	84.0871	8282.23	80.8778	8282.23	85.8856	8282.23	81.0531	8282.23	78.7515	8282.23	77.5304	8282.23	73.4101	8282.23	76.7791	8282.23	77.1322	8282.23	74.7461	8282.23	75.9799	8282.23	72.7261	8282.23	70.2844	8282.23	70.7232	8282.23	69.1568	8282.23	68.5705	8282.23	71.3312	8282.23	67.9231	8282.23	62.4347	8282.23	66.1203	8282.23	50.1239	8282.23	63.3587	8282.23	53.962	8282.23	69.4785	8282.23	56.7247	8282.23	71.6262	8282.23	62.7016	8282.23	65.9936	8282.23	47.9044	8282.23	65.1995
8574.46	90.4286	8574.46	85.1763	8574.46	87.7896	8574.46	87.787	8574.46	85.4387	8574.46	83.8711	8574.46	84.2913	8574.46	82.3935	8574.46	84.3275	8574.46	81.2838	8574.46	79.482	8574.46	77.9783	8574.46	73.0848	8574.46	75.8825	8574.46	76.1668	8574.46	71.368	8574.46	74.7435	8574.46	67.0027	8574.46	66.8236	8574.46	67.0801	8574.46	67.2541	8574.46	65.4176	8574.46	62.0907	8574.46	65.6788	8574.46	65.9678	8574.46	65.3148	8574.46	61.006	8574.46	59.7194	8574.46	54.4425	8574.46	63.9548	8574.46	54.258	8574.46	69.1795	8574.46	60.0022	8574.46	64.3157	8574.46	46.7595	8574.46	63.658
8876.22	90.6098	8876.22	83.8228	8876.22	88.6073	8876.22	87.7805	8876.22	85.0973	8876.22	84.443	8876.22	84.5216	8876.22	83.2484	8876.22	83.2115	8876.22	80.1389	8876.22	80.5012	8876.22	76.8992	8876.22	70.1718	8876.22	71.0641	8876.22	76.248	8876.22	68.3236	8876.22	75.3523	8876.22	64.6927	8876.22	68.7096	8876.22	66.4336	8876.22	71.6313	8876.22	64.2149	8876.22	64.8833	8876.22	62.479	8876.22	62.9227	8876.22	65.0078	8876.22	62.0338	8876.22	59.6262	8876.22	55.6954	8876.22	62.1263	8876.22	60.5112	8876.22	68.501	8876.22	52.8933	8876.22	64.2404	8876.22	52.3002	8876.22	64.5601
9189.7	90.2075	9189.7	83.5292	9189.7	89.0748	9189.7	88.288	9189.7	84.626	9189.7	85.5979	9189.7	85.0758	9189.7	82.6331	9189.7	82.5076	9189.7	80.3439	9189.7	80.7182	9189.7	74.3988	9189.7	65.5982	9189.7	71.7369	9189.7	74.7731	9189.7	71.8383	9189.7	74.3426	9189.7	68.675	9189.7	67.447	9189.7	69.1828	9189.7	72.6708	9189.7	68.0166	9189.7	67.3656	9189.7	65.1676	9189.7	67.3086	9189.7	67.2506	9189.7	59.4403	9189.7	63.4862	9189.7	59.0201	9189.7	66.5978	9189.7	59.4948	9189.7	70.8131	9189.7	55.734	9189.7	67.1707	9189.7	55.3065	9189.7	66.5228
9513.43	89.6194	9513.43	85.1037	9513.43	89.6179	9513.43	88.8656	9513.43	84.0906	9513.43	85.6426	9513.43	85.7996	9513.43	82.7325	9513.43	81.7198	9513.43	80.2783	9513.43	81.9666	9513.43	75.188	9513.43	59.6869	9513.43	74.375	9513.43	76.8779	9513.43	73.6901	9513.43	72.0255	9513.43	70.6057	9513.43	62.8176	9513.43	70.0653	9513.43	71.5049	9513.43	69.0103	9513.43	66.6876	9513.43	65.564	9513.43	66.4903	9513.43	68.6564	9513.43	57.2861	9513.43	64.7173	9513.43	62.6835	9513.43	68.8114	9513.43	63.4053	9513.43	71.4833	9513.43	46.5213	9513.43	67.0195	9513.43	57.0787	9513.43	66.854
9848.88	88.1684	9848.88	87.2981	9848.88	90.6472	9848.88	89.2874	9848.88	83.5142	9848.88	84.8138	9848.88	86.475	9848.88	83.8759	9848.88	81.7862	9848.88	78.3462	9848.88	83.0687	9848.88	77.9632	9848.88	65.4636	9848.88	75.4402	9848.88	78.2916	9848.88	73.8991	9848.88	72.1688	9848.88	70.4838	9848.88	69.607	9848.88	68.6752	9848.88	72.2625	9848.88	68.3785	9848.88	67.9621	9848.88	63.6452	9848.88	68.9965	9848.88	66.813	9848.88	54.1953	9848.88	62.9962	9848.88	62.6516	9848.88	69.4232	9848.88	63.2174	9848.88	71.9902	9848.88	56.4426	9848.88	64.8233	9848.88	54.5813	9848.88	65.5017
10196.8	87.2658	10196.8	88.4644	10196.8	90.3807	10196.8	88.5416	10196.8	84.8039	10196.8	84.4445	10196.8	86.382	10196.8	82.7505	10196.8	82.6686	10196.8	79.4288	10196.8	83.6376	10196.8	78.2999	10196.8	69.9222	10196.8	75.8406	10196.8	78.1419	10196.8	71.7105	10196.8	72.4278	10196.8	70.1312	10196.8	70.9854	10196.8	66.6455	10196.8	70.9856	10196.8	67.6564	10196.8	66.5513	10196.8	61.6078	10196.8	69.3135	10196.8	65.7253	10196.8	57.4274	10196.8	52.5455	10196.8	65.1043	10196.8	67.3845	10196.8	56.2567	10196.8	68.6134	10196.8	58.0272	10196.8	65.401	10196.8	45.0417	10196.8	61.9645
10556.4	87.0061	10556.4	88.6916	10556.4	89.9699	10556.4	87.7416	10556.4	85.6525	10556.4	85.3159	10556.4	86.3221	10556.4	82.2303	10556.4	82.1326	10556.4	80.1684	10556.4	82.8336	10556.4	77.8325	10556.4	71.5211	10556.4	75.0837	10556.4	77.3354	10556.4	70.9636	10556.4	69.2976	10556.4	69.5441	10556.4	69.2241	10556.4	66.3651	10556.4	70.6062	10556.4	68.0091	10556.4	68.0686	10556.4	63.6418	10556.4	69.5513	10556.4	66.588	10556.4	55.0173	10556.4	57.7283	10556.4	63.0983	10556.4	67.6904	10556.4	58.9452	10556.4	67.923	10556.4	54.5344	10556.4	65.0079	10556.4	38.1234	10556.4	63.0644
10928.5	87.4585	10928.5	88.8097	10928.5	89.763	10928.5	87.4522	10928.5	85.8801	10928.5	85.3974	10928.5	86.2764	10928.5	81.4116	10928.5	81.692	10928.5	80.1578	10928.5	82.0204	10928.5	77.9379	10928.5	73.3125	10928.5	75.4699	10928.5	76.211	10928.5	72.3562	10928.5	68.9375	10928.5	69.0711	10928.5	64.6506	10928.5	67.5182	10928.5	66.2198	10928.5	67.6084	10928.5	67.2956	10928.5	64.0142	10928.5	65.9824	10928.5	66.0983	10928.5	50.9196	10928.5	60.2247	10928.5	62.766	10928.5	65.8928	10928.5	54.9	10928.5	67.2422	10928.5	53.6491	10928.5	62.714	10928.5	45.8371	10928.5	63.5163
11313.7	88.0517	11313.7	88.8947	11313.7	89.5807	11313.7	87.8295	11313.7	85.7745	11313.7	84.1336	11313.7	86.2422	11313.7	81.3969	11313.7	80.6662	11313.7	79.8672	11313.7	80.9051	11313.7	77.4384	11313.7	70.7579	11313.7	74.6972	11313.7	73.0785	11313.7	71.5859	11313.7	72.0039	11313.7	67.0054	11313.7	67.1729	11313.7	65.9792	11313.7	58.265	11313.7	65.3255	11313.7	63.3629	11313.7	61.9927	11313.7	65.3112	11313.7	62.5002	11313.7	57.8255	11313.7	59.7273	11313.7	56.2056	11313.7	62.8212	11313.7	59.1756	11313.7	65.2335	11313.7	51.5034	11313.7	59.1734	11313.7	34.6523	11313.7	63.211
11712.9	87.8592	11712.9	89.1166	11712.9	89.5997	11712.9	87.6069	11712.9	84.8506	11712.9	83.2441	11712.9	86.0809	11712.9	81.5134	11712.9	77.9971	11712.9	79.1721	11712.9	79.8939	11712.9	76.9876	11712.9	69.1035	11712.9	73.1779	11712.9	68.6829	11712.9	70.7763	11712.9	68.9995	11712.9	66.6187	11712.9	63.8557	11712.9	64.7432	11712.9	57.7639	11712.9	64.3993	11712.9	60.3315	11712.9	60.7294	11712.9	65.7615	11712.9	62.8096	11712.9	61.0028	11712.9	59.209	11712.9	59.263	11712.9	63.4548	11712.9	60.4692	11712.9	64.9892	11712.9	52.7204	11712.9	58.2371	11712.9	54.6362	11712.9	63.1601
12126	85.6183	12126	90.5758	12126	90.0931	12126	84.8153	12126	82.7479	12126	83.9041	12126	85.5678	12126	80.8612	12126	78.9171	12126	79.3066	12126	79.0165	12126	77.064	12126	75.2093	12126	72.6252	12126	72.2577	12126	67.8351	12126	64.0246	12126	66.8886	12126	67.0438	12126	58.1879	12126	53.7284	12126	65.8313	12126	60.7442	12126	57.2761	12126	67.3813	12126	63.2728	12126	60.5691	12126	59.0636	12126	62.4876	12126	64.1466	12126	61.0734	12126	59.2247	12126	49.9415	12126	63.1769	12126	50.012	12126	62.3203
12553.7	86.7691	12553.7	89.4514	12553.7	88.822	12553.7	83.5478	12553.7	83.5485	12553.7	84.0173	12553.7	83.7864	12553.7	81.7309	12553.7	79.5432	12553.7	78.2769	12553.7	78.2997	12553.7	75.774	12553.7	76.7625	12553.7	71.4878	12553.7	69.5338	12553.7	66.8094	12553.7	70.1272	12553.7	65.1853	12553.7	66.4562	12553.7	63.3124	12553.7	55.0526	12553.7	65.5506	12553.7	67.6122	12553.7	63.328	12553.7	65.985	12553.7	61.3886	12553.7	57.6409	12553.7	64.5388	12553.7	60.0773	12553.7	63.4236	12553.7	58.1034	12553.7	58.3768	12553.7	42.1244	12553.7	63.8499	12553.7	42.7926	12553.7	62.9044
12996.1	86.3934	12996.1	88.0532	12996.1	87.4904	12996.1	83.9695	12996.1	82.6891	12996.1	83.9989	12996.1	83.4699	12996.1	84.0045	12996.1	81.3272	12996.1	78.7824	12996.1	79.265	12996.1	76.9762	12996.1	77.3276	12996.1	72.4897	12996.1	65.579	12996.1	69.7702	12996.1	71.0674	12996.1	67.0699	12996.1	64.3831	12996.1	66.9881	12996.1	60.9343	12996.1	65.9725	12996.1	70.1497	12996.1	64.7375	12996.1	65.2599	12996.1	62.7507	12996.1	57.5576	12996.1	65.4904	12996.1	55.3002	12996.1	65.2398	12996.1	57.1597	12996.1	62.6405	12996.1	50.2063	12996.1	63.8162	12996.1	54.3878	12996.1	63.2375
13454.6	85.428	13454.6	86.8821	13454.6	85.9801	13454.6	83.9677	13454.6	81.4965	13454.6	86.2457	13454.6	83.8647	13454.6	85.3113	13454.6	83.4428	13454.6	81.2577	13454.6	81.0912	13454.6	77.8838	13454.6	78.9613	13454.6	75.8285	13454.6	66.0562	13454.6	72.8994	13454.6	73.2586	13454.6	70.3808	13454.6	65.145	13454.6	68.5841	13454.6	63.0598	13454.6	65.7612	13454.6	72.3065	13454.6	66.0329	13454.6	67.515	13454.6	65.187	13454.6	60.1443	13454.6	66.7123	13454.6	52.8761	13454.6	66.3567	13454.6	50.2613	13454.6	65.8939	13454.6	49.9612	13454.6	64.8478	13454.6	52.9617	13454.6	61.993
13928.5	84.2432	13928.5	85.361	13928.5	85.0373	13928.5	85.2598	13928.5	81.394	13928.5	87.3464	13928.5	83.8369	13928.5	85.8019	13928.5	84.2658	13928.5	83.4155	13928.5	82.2986	13928.5	79.2313	13928.5	79.5863	13928.5	77.015	13928.5	66.6102	13928.5	73.2727	13928.5	72.649	13928.5	69.2287	13928.5	62.4036	13928.5	67.4595	13928.5	66.6798	13928.5	65.6146	13928.5	73.849	13928.5	65.9109	13928.5	68.9975	13928.5	64.4099	13928.5	53.1895	13928.5	67.8377	13928.5	12.9207	13928.5	65.6488	13928.5	54.0693	13928.5	66.0491	13928.5	48.4024	13928.5	64.3547	13928.5	54.4278	13928.5	60.9043
14419.9	82.9753	14419.9	85.4302	14419.9	85.2928	14419.9	86.4764	14419.9	83.0305	14419.9	87.1397	14419.9	84.2234	14419.9	86.5681	14419.9	84.5038	14419.9	83.6465	14419.9	81.9861	14419.9	79.821	14419.9	77.8163	14419.9	76.8343	14419.9	67.8402	14419.9	72.2153	14419.9	70.7099	14419.9	69.1099	14419.9	62.4763	14419.9	66.1945	14419.9	68.0865	14419.9	65.8165	14419.9	72.8551	14419.9	65.576	14419.9	69.0722	14419.9	66.6726	14419.9	53.9591	14419.9	67.003	14419.9	28.2348	14419.9	65.7984	14419.9	55.0685	14419.9	66.1593	14419.9	51.45	14419.9	62.254	14419.9	56.8508	14419.9	59.4923
14928.2	85.738	14928.2	86.7658	14928.2	87.0378	14928.2	86.9951	14928.2	85.4334	14928.2	86.9994	14928.2	84.7868	14928.2	85.7468	14928.2	84.4154	14928.2	82.6024	14928.2	81.6447	14928.2	79.0669	14928.2	76.2246	14928.2	76.5764	14928.2	69.1932	14928.2	69.587	14928.2	68.8763	14928.2	69.6012	14928.2	60.0879	14928.2	63.9018	14928.2	66.6746	14928.2	65.3579	14928.2	69.142	14928.2	62.8313	14928.2	65.2788	14928.2	66.4991	14928.2	56.2344	14928.2	65.8543	14928.2	52.8328	14928.2	65.4417	14928.2	51.2262	14928.2	63.0229	14928.2	52.5057	14928.2	58.6202	14928.2	56.7072	14928.2	58.6696
15454.8	87.5436	15454.8	87.4296	15454.8	88.2529	15454.8	87.0628	15454.8	86.6564	15454.8	85.8548	15454.8	84.5604	15454.8	83.7305	15454.8	83.2077	15454.8	81.2819	15454.8	79.7588	15454.8	77.1223	15454.8	75.457	15454.8	74.9194	15454.8	67.4605	15454.8	68.3575	15454.8	66.7	15454.8	67.2694	15454.8	48.2789	15454.8	60.5829	15454.8	64.615	15454.8	62.0536	15454.8	65.0478	15454.8	61.5582	15454.8	61.1463	15454.8	64.084	15454.8	51.4967	15454.8	63.2564	15454.8	54.7219	15454.8	63.182	15454.8	52.5174	15454.8	58.3748	15454.8	45.7074	15454.8	56.7299	15454.8	51.0084	15454.8	56.0393
15999.8	87.7424	15999.8	87.1271	15999.8	88.2909	15999.8	85.6416	15999.8	86.6718	15999.8	83.2156	15999.8	83.8265	15999.8	80.5526	15999.8	82.0053	15999.8	77.9166	15999.8	77.5866	15999.8	74.3774	15999.8	73.5924	15999.8	72.0426	15999.8	65.356	15999.8	64.8629	15999.8	64.8745	15999.8	62.7963	15999.8	54.987	15999.8	58.379	15999.8	64.9981	15999.8	57.6337	15999.8	63.707	15999.8	57.5526	15999.8	53.8659	15999.8	61.6289	15999.8	44.8139	15999.8	58.9519	15999.8	47.9455	15999.8	58.8743	15999.8	49.4229	15999.8	52.4453	15999.8	47.8815	15999.8	50.1919	15999.8	34.8766	15999.8	46.1679
16564.5	87.5693	16564.5	86.8389	16564.5	88.2444	16564.5	84.4486	16564.5	86.4798	16564.5	80.9697	16564.5	83.6516	16564.5	76.8286	16564.5	81.4247	16564.5	72.6801	16564.5	77.0013	16564.5	70.7028	16564.5	72.9777	16564.5	67.418	16564.5	67.2371	16564.5	57.1594	16564.5	63.3987	16564.5	56.5265	16564.5	58.7747	16564.5	53.3022	16564.5	65.4359	16564.5	50.236	16564.5	65.8234	16564.5	48.0482	16564.5	59.1895	16564.5	55.1914	16564.5	42.5055	16564.5	52.2152	16564.5	46.2616	16564.5	50.8957	16564.5	37.5637	16564.5	41.7829	16564.5	43.436	16564.5	47.8143	16564.5	39.2223	16564.5	38.0199
17148.2	87.6081	17148.2	86.9603	17148.2	88.2824	17148.2	84.5276	17148.2	86.9235	17148.2	81.3507	17148.2	84.1707	17148.2	76.0676	17148.2	81.6592	17148.2	68.9815	17148.2	77.0745	17148.2	61.582	17148.2	73.2519	17148.2	57.2132	17148.2	66.4803	17148.2	40.9214	17148.2	60.8661	17148.2	49.027	17148.2	59.4771	17148.2	36.8983	17148.2	67.9101	17148.2	36.5491	17148.2	69.3565	17148.2	38.5114	17148.2	63.3126	17148.2	37.8924	17148.2	46.2819	17148.2	46.444	17148.2	47.4738	17148.2	39.4961	17148.2	44.5223	17148.2	46.1297	17148.2	41.7538	17148.2	54.0979	17148.2	38.0131	17148.2	44.3476
17753.2	88.2582	17753.2	87.5168	17753.2	88.8276	17753.2	84.9558	17753.2	87.7458	17753.2	81.7511	17753.2	85.2081	17753.2	77.5391	17753.2	82.0221	17753.2	68.6157	17753.2	77.1311	17753.2	61.8943	17753.2	73.216	17753.2	34.7888	17753.2	67.4207	17753.2	50.2983	17753.2	58.816	17753.2	46.747	17753.2	61.9525	17753.2	43.0799	17753.2	69.1775	17753.2	46.8576	17753.2	69.7005	17753.2	46.0622	17753.2	63.9012	17753.2	50.0565	17753.2	40.6985	17753.2	50.1463	17753.2	25.8651	17753.2	44.8437	17753.2	42.5047	17753.2	48.1822	17753.2	34.2369	17753.2	53.735	17753.2	43.0572	17753.2	37.3678
18379.4	88.0567	18379.4	86.8339	18379.4	88.3578	18379.4	83.6035	18379.4	86.8039	18379.4	80.077	18379.4	84.2757	18379.4	74.588	18379.4	80.6917	18379.4	66.866	18379.4	75.9378	18379.4	57.5032	18379.4	72.142	18379.4	51.1968	18379.4	67.1212	18379.4	42.1754	18379.4	55.5626	18379.4	44.3886	18379.4	60.1564	18379.4	26.5811	18379.4	66.3353	18379.4	44.9899	18379.4	64.5351	18379.4	38.5159	18379.4	58.3111	18379.4	46.8466	18379.4	36.7688	18379.4	31.5551	18379.4	42.8968	18379.4	27.7262	18379.4	26.8906	18379.4	41.3272	18379.4	33.1969	18379.4	40.2556	18379.4	29.2804	18379.4	39.4881
19027.6	87.0045	19027.6	85.407	19027.6	87.2814	19027.6	81.145	19027.6	85.2371	19027.6	74.8959	19027.6	81.9237	19027.6	66.1193	19027.6	78.3358	19027.6	50.9686	19027.6	72.7312	19027.6	39.2892	19027.6	68.2836	19027.6	49.8643	19027.6	61.9503	19027.6	37.6667	19027.6	52.3335	19027.6	39.9986	19027.6	56.821	19027.6	37.1346	19027.6	60.554	19027.6	33.374	19027.6	62.7696	19027.6	35.315	19027.6	57.1217	19027.6	45.672	19027.6	34.9553	19027.6	44.0921	19027.6	36.5269	19027.6	38.4779	19027.6	38.3704	19027.6	48.3186	19027.6	36.4437	19027.6	49.3413	19027.6	41.1892	19027.6	40.1108
19698.5	85.209	19698.5	83.2819	19698.5	85.5798	19698.5	78.6654	19698.5	83.8563	19698.5	71.0743	19698.5	80.337	19698.5	61.7167	19698.5	76.5443	19698.5	54.8649	19698.5	70.6477	19698.5	56.0507	19698.5	65.7994	19698.5	54.8887	19698.5	57.8397	19698.5	49.9715	19698.5	50.7907	19698.5	41.6107	19698.5	54.7399	19698.5	45.1969	19698.5	60.6514	19698.5	40.4951	19698.5	64.1295	19698.5	42.4085	19698.5	57.6982	19698.5	47.0219	19698.5	34.2025	19698.5	43.2802	19698.5	39.481	19698.5	43.3953	19698.5	24.008	19698.5	48.8449	19698.5	36.2483	19698.5	50.6446	19698.5	40.1439	19698.5	43.9609
19999.5	84.5436	19999.5	82.2572	19999.5	84.7018	19999.5	77.1872	19999.5	83.0692	19999.5	70.2994	19999.5	79.8869	19999.5	63.0966	19999.5	75.1394	19999.5	60.0431	19999.5	69.8726	19999.5	58.4078	19999.5	65.1809	19999.5	53.8024	19999.5	55.699	19999.5	50.8103	19999.5	50.1915	19999.5	44.4492	19999.5	52.6108	19999.5	43.5821	19999.5	60.8268	19999.5	44.7089	19999.5	64.1036	19999.5	39.8778	19999.5	55.5348	19999.5	50.5243	19999.5	41.6141	19999.5	45.5869	19999.5	44.4533	19999.5	51.7174	19999.5	42.255	19999.5	47.9854	19999.5	33.5135	19999.5	51.097	19999.5	46.8108	19999.5	47.7208
