"SPL Horizontal"																																																																							
"On-Axis"		"10°"		"-10°"		"20°"		"-20°"		"30°"		"-30°"		"40°"		"-40°"		"50°"		"-50°"		"60°"		"-60°"		"70°"		"-70°"		"80°"		"-80°"		"90°"		"-90°"		"100°"		"-100°"		"110°"		"-110°"		"120°"		"-120°"		"130°"		"-130°"		"140°"		"-140°"		"150°"		"-150°"		"160°"		"-160°"		"170°"		"-170°"		"180°"	
"Frequency [Hz]"	"Sound Pessure Level [dB]   [0.3V at 1m]"	"Frequency [Hz]"	"Sound Pessure Level [dB]   [0.3V at 1m]"	"Frequency [Hz]"	"Sound Pessure Level [dB]   [0.3V at 1m]"	"Frequency [Hz]"	"Sound Pessure Level [dB]   [0.3V at 1m]"	"Frequency [Hz]"	"Sound Pessure Level [dB]   [0.3V at 1m]"	"Frequency [Hz]"	"Sound Pessure Level [dB]   [0.3V at 1m]"	"Frequency [Hz]"	"Sound Pessure Level [dB]   [0.3V at 1m]"	"Frequency [Hz]"	"Sound Pessure Level [dB]   [0.3V at 1m]"	"Frequency [Hz]"	"Sound Pessure Level [dB]   [0.3V at 1m]"	"Frequency [Hz]"	"Sound Pessure Level [dB]   [0.3V at 1m]"	"Frequency [Hz]"	"Sound Pessure Level [dB]   [0.3V at 1m]"	"Frequency [Hz]"	"Sound Pessure Level [dB]   [0.3V at 1m]"	"Frequency [Hz]"	"Sound Pessure Level [dB]   [0.3V at 1m]"	"Frequency [Hz]"	"Sound Pessure Level [dB]   [0.3V at 1m]"	"Frequency [Hz]"	"Sound Pessure Level [dB]   [0.3V at 1m]"	"Frequency [Hz]"	"Sound Pessure Level [dB]   [0.3V at 1m]"	"Frequency [Hz]"	"Sound Pessure Level [dB]   [0.3V at 1m]"	"Frequency [Hz]"	"Sound Pessure Level [dB]   [0.3V at 1m]"	"Frequency [Hz]"	"Sound Pessure Level [dB]   [0.3V at 1m]"	"Frequency [Hz]"	"Sound Pessure Level [dB]   [0.3V at 1m]"	"Frequency [Hz]"	"Sound Pessure Level [dB]   [0.3V at 1m]"	"Frequency [Hz]"	"Sound Pessure Level [dB]   [0.3V at 1m]"	"Frequency [Hz]"	"Sound Pessure Level [dB]   [0.3V at 1m]"	"Frequency [Hz]"	"Sound Pessure Level [dB]   [0.3V at 1m]"	"Frequency [Hz]"	"Sound Pessure Level [dB]   [0.3V at 1m]"	"Frequency [Hz]"	"Sound Pessure Level [dB]   [0.3V at 1m]"	"Frequency [Hz]"	"Sound Pessure Level [dB]   [0.3V at 1m]"	"Frequency [Hz]"	"Sound Pessure Level [dB]   [0.3V at 1m]"	"Frequency [Hz]"	"Sound Pessure Level [dB]   [0.3V at 1m]"	"Frequency [Hz]"	"Sound Pessure Level [dB]   [0.3V at 1m]"	"Frequency [Hz]"	"Sound Pessure Level [dB]   [0.3V at 1m]"	"Frequency [Hz]"	"Sound Pessure Level [dB]   [0.3V at 1m]"	"Frequency [Hz]"	"Sound Pessure Level [dB]   [0.3V at 1m]"	"Frequency [Hz]"	"Sound Pessure Level [dB]   [0.3V at 1m]"	"Frequency [Hz]"	"Sound Pessure Level [dB]   [0.3V at 1m]"	"Frequency [Hz]"	"Sound Pessure Level [dB]   [0.3V at 1m]"
20.5078	36.1174	20.5078	36.1223	20.5078	36.1226	20.5078	36.1378	20.5078	36.1384	20.5078	36.1652	20.5078	36.1658	20.5078	36.2062	20.5078	36.2068	20.5078	36.2629	20.5078	36.2641	20.5078	36.3378	20.5078	36.3405	20.5078	36.433	20.5078	36.4386	20.5078	36.5498	20.5078	36.5604	20.5078	36.6887	20.5078	36.7057	20.5078	36.848	20.5078	36.8723	20.5078	37.0237	20.5078	37.055	20.5078	37.2094	20.5078	37.2459	20.5078	37.3958	20.5078	37.4346	20.5078	37.572	20.5078	37.6095	20.5078	37.7265	20.5078	37.7588	20.5078	37.8482	20.5078	37.8718	20.5078	37.9279	20.5078	37.9404	20.5078	37.9596
21.2402	40.7577	21.2402	40.8102	21.2402	40.7125	21.2402	40.8686	21.2402	40.6764	21.2402	40.9323	21.2402	40.6519	21.2402	41.001	21.2402	40.6417	21.2402	41.0749	21.2402	40.649	21.2402	41.1544	21.2402	40.6768	21.2402	41.2399	21.2402	40.7281	21.2402	41.332	21.2402	40.8045	21.2402	41.4303	21.2402	40.9064	21.2402	41.5341	21.2402	41.032	21.2402	41.641	21.2402	41.1772	21.2402	41.7477	21.2402	41.3355	21.2402	41.8492	21.2402	41.4983	21.2402	41.9395	21.2402	41.656	21.2402	42.0118	21.2402	41.7986	21.2402	42.0593	21.2402	41.9175	21.2402	42.0765	21.2402	42.0057	21.2402	42.0591
21.9727	41.2447	21.9727	41.263	21.9727	41.2344	21.9727	41.2885	21.9727	41.2324	21.9727	41.3207	21.9727	41.239	21.9727	41.3585	21.9727	41.2543	21.9727	41.401	21.9727	41.2785	21.9727	41.4473	21.9727	41.3113	21.9727	41.4966	21.9727	41.3526	21.9727	41.5479	21.9727	41.402	21.9727	41.6007	21.9727	41.4589	21.9727	41.6542	21.9727	41.522	21.9727	41.7076	21.9727	41.5897	21.9727	41.7599	21.9727	41.6594	21.9727	41.8095	21.9727	41.728	21.9727	41.8544	21.9727	41.7921	21.9727	41.8923	21.9727	41.8479	21.9727	41.9203	21.9727	41.8921	21.9727	41.9358	21.9727	41.9223	21.9727	41.9368
22.7051	30.5515	22.7051	30.2542	22.7051	30.866	22.7051	29.9824	22.7051	31.1899	22.7051	29.7448	22.7051	31.5154	22.7051	29.5505	22.7051	31.8351	22.7051	29.4085	22.7051	32.1416	22.7051	29.3271	22.7051	32.4272	22.7051	29.3126	22.7051	32.6845	22.7051	29.3691	22.7051	32.9062	22.7051	29.4968	22.7051	33.0855	22.7051	29.6916	22.7051	33.2167	22.7051	29.9457	22.7051	33.2949	22.7051	30.2478	22.7051	33.3173	22.7051	30.5843	22.7051	33.2825	22.7051	30.9414	22.7051	33.191	22.7051	31.3052	22.7051	33.0449	22.7051	31.6635	22.7051	32.848	22.7051	32.0055	22.7051	32.6051	22.7051	32.322
23.4375	32.1228	23.4375	31.985	23.4375	32.236	23.4375	31.8248	23.4375	32.3241	23.4375	31.6457	23.4375	32.3875	23.4375	31.4533	23.4375	32.4276	23.4375	31.2561	23.4375	32.4464	23.4375	31.0655	23.4375	32.4469	23.4375	30.8959	23.4375	32.4328	23.4375	30.764	23.4375	32.4085	23.4375	30.6867	23.4375	32.3786	23.4375	30.6773	23.4375	32.3477	23.4375	30.7415	23.4375	32.3198	23.4375	30.8748	23.4375	32.2973	23.4375	31.0621	23.4375	32.2797	23.4375	31.2809	23.4375	32.2632	23.4375	31.5068	23.4375	32.2407	23.4375	31.7176	23.4375	32.2025	23.4375	31.8974	23.4375	32.1379	23.4375	32.0379
24.1699	40.8089	24.1699	40.779	24.1699	40.8322	24.1699	40.7427	24.1699	40.8486	24.1699	40.7009	24.1699	40.8585	24.1699	40.6548	24.1699	40.8622	24.1699	40.606	24.1699	40.8604	24.1699	40.5567	24.1699	40.854	24.1699	40.5094	24.1699	40.8439	24.1699	40.4672	24.1699	40.8312	24.1699	40.4331	24.1699	40.8169	24.1699	40.4101	24.1699	40.8019	24.1699	40.4005	24.1699	40.7867	24.1699	40.4054	24.1699	40.7715	24.1699	40.4246	24.1699	40.7559	24.1699	40.4559	24.1699	40.7388	24.1699	40.496	24.1699	40.7188	24.1699	40.5406	24.1699	40.6943	24.1699	40.5857	24.1699	40.664	24.1699	40.6275
25.6348	33.5588	25.6348	33.5167	25.6348	33.5182	25.6348	33.3912	25.6348	33.3942	25.6348	33.181	25.6348	33.1851	25.6348	32.8832	25.6348	32.8881	25.6348	32.4943	25.6348	32.4997	25.6348	32.0098	25.6348	32.0154	25.6348	31.4248	25.6348	31.4304	25.6348	30.7342	25.6348	30.7397	25.6348	29.9343	25.6348	29.9393	25.6348	29.0243	25.6348	29.0277	25.6348	28.0085	25.6348	28.0083	25.6348	26.9013	25.6348	26.894	25.6348	25.7321	25.6348	25.7133	25.6348	24.5525	25.6348	24.5189	25.6348	23.4422	25.6348	23.3953	25.6348	22.5081	25.6348	22.4586	25.6348	21.8699	25.6348	21.8369	25.6348	21.6303
26.3672	37.0566	26.3672	37.0037	26.3672	37.0742	26.3672	36.9163	26.3672	37.0579	26.3672	36.7974	26.3672	37.0107	26.3672	36.6524	26.3672	36.9379	26.3672	36.4899	26.3672	36.8466	26.3672	36.3218	26.3672	36.7466	26.3672	36.1635	26.3672	36.6493	26.3672	36.0333	26.3672	36.5675	26.3672	35.9494	26.3672	36.5135	26.3672	35.9268	26.3672	36.497	26.3672	35.9728	26.3672	36.5224	26.3672	36.0836	26.3672	36.5874	26.3672	36.2447	26.3672	36.6819	26.3672	36.4331	26.3672	36.79	26.3672	36.6231	26.3672	36.8924	26.3672	36.7904	26.3672	36.9698	26.3672	36.9164	26.3672	37.0057	26.3672	36.9893
27.0996	40.5623	27.0996	40.5278	27.0996	40.5587	27.0996	40.456	27.0996	40.5172	27.0996	40.3482	27.0996	40.4389	27.0996	40.207	27.0996	40.3255	27.0996	40.0362	27.0996	40.18	27.0996	39.8414	27.0996	40.0068	27.0996	39.6301	27.0996	39.8119	27.0996	39.4122	27.0996	39.6034	27.0996	39.1991	27.0996	39.3912	27.0996	39.0033	27.0996	39.1866	27.0996	38.8361	27.0996	39.0012	27.0996	38.7061	27.0996	38.8452	27.0996	38.6162	27.0996	38.7249	27.0996	38.5637	27.0996	38.6417	27.0996	38.5405	27.0996	38.5913	27.0996	38.5358	27.0996	38.5649	27.0996	38.5397	27.0996	38.5526	27.0996	38.5457
27.832	39.5791	27.832	39.5451	27.832	39.5528	27.832	39.451	27.832	39.4664	27.832	39.2971	27.832	39.3202	27.832	39.0848	27.832	39.1153	27.832	38.8165	27.832	38.8535	27.832	38.4967	27.832	38.5383	27.832	38.1329	27.832	38.1757	27.832	37.7366	27.832	37.7751	27.832	37.3244	27.832	37.3509	27.832	36.9177	27.832	36.9228	27.832	36.5408	27.832	36.5155	27.832	36.2166	27.832	36.1558	27.832	35.9609	27.832	35.8669	27.832	35.7772	27.832	35.662	27.832	35.6564	27.832	35.54	27.832	35.5807	27.832	35.4862	27.832	35.5318	27.832	35.479	27.832	35.498
29.2969	38.4941	29.2969	38.424	29.2969	38.4431	29.2969	38.2323	29.2969	38.2703	29.2969	37.9174	29.2969	37.9735	29.2969	37.4777	29.2969	37.5499	29.2969	36.9139	29.2969	36.998	29.2969	36.2341	29.2969	36.321	29.2969	35.4623	29.2969	35.5351	29.2969	34.6535	29.2969	34.6826	29.2969	33.9103	29.2969	33.8524	29.2969	33.3815	29.2969	33.1926	29.2969	33.2065	29.2969	32.8745	29.2969	33.4167	29.2969	32.9857	29.2969	33.9032	29.2969	33.4501	29.2969	34.4957	29.2969	34.0871	29.2969	35.0503	29.2969	34.7255	29.2969	35.4758	29.2969	35.2535	29.2969	35.7232	29.2969	35.6109	29.2969	35.7702
30.0293	40.6152	30.0293	40.5759	30.0293	40.5787	30.0293	40.4635	30.0293	40.4677	30.0293	40.2853	30.0293	40.2874	30.0293	40.0543	30.0293	40.0489	30.0293	39.7924	30.0293	39.7708	30.0293	39.5317	30.0293	39.4823	30.0293	39.3156	30.0293	39.2242	30.0293	39.1935	30.0293	39.0469	30.0293	39.2082	30.0293	38.9999	30.0293	39.3798	30.0293	39.1147	30.0293	39.694	30.0293	39.3898	30.0293	40.1068	30.0293	39.7891	30.0293	40.5595	30.0293	40.2551	30.0293	40.995	30.0293	40.7267	30.0293	41.3667	30.0293	41.1521	30.0293	41.6416	30.0293	41.4924	30.0293	41.7984	30.0293	41.7221	30.0293	41.826
31.4941	43.9909	31.4941	43.9647	31.4941	43.9389	31.4941	43.8613	31.4941	43.8102	31.4941	43.6843	31.4941	43.6087	31.4941	43.4411	31.4941	43.3425	31.4941	43.145	31.4941	43.0253	31.4941	42.8176	31.4941	42.6793	31.4941	42.4914	31.4941	42.3374	31.4941	42.21	31.4941	42.0438	31.4941	42.0228	31.4941	41.8482	31.4941	41.9717	31.4941	41.7932	31.4941	42.0741	31.4941	41.8972	31.4941	42.3125	31.4941	42.1435	31.4941	42.6402	31.4941	42.4858	31.4941	42.9975	31.4941	42.8645	31.4941	43.328	31.4941	43.2224	31.4941	43.5877	31.4941	43.5144	31.4941	43.7468	31.4941	43.7092	31.4941	43.7888
32.2266	44.0508	32.2266	44.0298	32.2266	43.9827	32.2266	43.9206	32.2266	43.8276	32.2266	43.7269	32.2266	43.591	32.2266	43.4575	32.2266	43.2834	32.2266	43.1279	32.2266	42.9237	32.2266	42.7652	32.2266	42.5427	32.2266	42.4109	32.2266	42.1862	32.2266	42.1215	32.2266	41.9137	32.2266	41.9601	32.2266	41.7873	32.2266	41.9762	32.2266	41.8489	32.2266	42.1813	32.2266	42.0991	32.2266	42.5407	32.2266	42.4943	32.2266	42.9881	32.2266	42.965	32.2266	43.4502	32.2266	43.44	32.2266	43.8653	32.2266	43.8611	32.2266	44.189	32.2266	44.1873	32.2266	44.3931	32.2266	44.3925	32.2266	44.4626
33.6914	44.7903	33.6914	44.6644	33.6914	44.8228	33.6914	44.4498	33.6914	44.7657	33.6914	44.1619	33.6914	44.6306	33.6914	43.8317	33.6914	44.4398	33.6914	43.5124	33.6914	44.2285	33.6914	43.2816	33.6914	44.0482	33.6914	43.2299	33.6914	43.963	33.6914	43.4273	33.6914	44.0355	33.6914	43.8842	33.6914	44.3036	33.6914	44.5427	33.6914	44.7602	33.6914	45.3081	33.6914	45.3558	33.6914	46.0881	33.6914	46.0193	33.6914	46.8132	33.6914	46.6814	33.6914	47.4378	33.6914	47.287	33.6914	47.9346	33.6914	47.797	33.6914	48.2882	33.6914	48.1856	33.6914	48.491	33.6914	48.4365	33.6914	48.54
34.4238	46.2794	34.4238	46.1919	34.4238	46.2946	34.4238	46.0401	34.4238	46.2384	34.4238	45.8432	34.4238	46.1212	34.4238	45.6346	34.4238	45.9639	34.4238	45.4632	34.4238	45.8	34.4238	45.3902	34.4238	45.6764	34.4238	45.4756	34.4238	45.649	34.4238	45.7547	34.4238	45.7692	34.4238	46.2206	34.4238	46.065	34.4238	46.8256	34.4238	46.5266	34.4238	47.5014	34.4238	47.1097	34.4238	48.1811	34.4238	47.7524	34.4238	48.8109	34.4238	48.3936	34.4238	49.3527	34.4238	48.9835	34.4238	49.7811	34.4238	49.4856	34.4238	50.0804	34.4238	49.8752	34.4238	50.2413	34.4238	50.1365	34.4238	50.26
35.8887	48.9454	35.8887	48.8921	35.8887	48.942	35.8887	48.7912	35.8887	48.8824	35.8887	48.6621	35.8887	48.7763	35.8887	48.5358	35.8887	48.6442	35.8887	48.4546	35.8887	48.5185	35.8887	48.467	35.8887	48.4427	35.8887	48.6159	35.8887	48.4658	35.8887	48.9232	35.8887	48.63	35.8887	49.3792	35.8887	48.9548	35.8887	49.9453	35.8887	49.427	35.8887	50.5675	35.8887	50.0051	35.8887	51.1914	35.8887	50.6335	35.8887	51.7708	35.8887	51.2576	35.8887	52.2709	35.8887	51.8321	35.8887	52.6668	35.8887	52.3229	35.8887	52.942	35.8887	52.7062	35.8887	53.0863	35.8887	52.9665	35.8887	53.0946
37.3535	51.387	37.3535	51.3419	37.3535	51.3755	37.3535	51.2484	37.3535	51.3073	37.3535	51.124	37.3535	51.191	37.3535	50.9962	37.3535	51.0447	37.3535	50.9025	37.3535	50.8975	37.3535	50.887	37.3535	50.7896	37.3535	50.9909	37.3535	50.7683	37.3535	51.239	37.3535	50.8774	37.3535	51.6289	37.3535	51.1415	37.3535	52.1305	37.3535	51.555	37.3535	52.6961	37.3535	52.0826	37.3535	53.2738	37.3535	52.6718	37.3535	53.8175	37.3535	53.2676	37.3535	54.2907	37.3535	53.8229	37.3535	54.667	37.3535	54.3017	37.3535	54.9284	37.3535	54.6786	37.3535	55.0634	37.3535	54.9368	37.3535	55.0665
38.8184	52.4174	38.8184	52.3758	38.8184	52.3932	38.8184	52.2787	38.8184	52.3031	38.8184	52.147	38.8184	52.1568	38.8184	52.0138	38.8184	51.9762	38.8184	51.9243	38.8184	51.7973	38.8184	51.9309	38.8184	51.6712	38.8184	52.0799	38.8184	51.6575	38.8184	52.3948	38.8184	51.8089	38.8184	52.8645	38.8184	52.1492	38.8184	53.4469	38.8184	52.6607	38.8184	54.0844	38.8184	53.2909	38.8184	54.7203	38.8184	53.9734	38.8184	55.3075	38.8184	54.6464	38.8184	55.8109	38.8184	55.2614	38.8184	56.2063	38.8184	55.7841	38.8184	56.4775	38.8184	56.192	38.8184	56.6147	38.8184	56.4709	38.8184	56.6128
39.5508	53.1726	39.5508	53.1487	39.5508	53.1413	39.5508	53.0802	39.5508	53.0548	39.5508	52.9892	39.5508	52.9244	39.5508	52.9095	39.5508	52.7745	39.5508	52.8853	39.5508	52.6436	39.5508	52.9641	39.5508	52.5831	39.5508	53.1839	39.5508	52.6483	39.5508	53.5581	39.5508	52.8817	39.5508	54.0692	39.5508	53.2941	39.5508	54.6741	39.5508	53.8578	39.5508	55.3192	39.5508	54.5183	39.5508	55.953	39.5508	55.2129	39.5508	56.5335	39.5508	55.886	39.5508	57.029	39.5508	56.4948	39.5508	57.4176	39.5508	57.009	39.5508	57.6842	39.5508	57.4086	39.5508	57.8196	39.5508	57.6809	39.5508	57.8188
41.0156	55.6481	41.0156	55.6443	41.0156	55.6118	41.0156	55.6094	41.0156	55.5365	41.0156	55.5622	41.0156	55.4336	41.0156	55.5312	41.0156	55.3257	41.0156	55.5524	41.0156	55.2472	41.0156	55.6632	41.0156	55.2408	41.0156	55.8929	41.0156	55.3501	41.0156	56.2517	41.0156	55.6055	41.0156	56.7259	41.0156	56.012	41.0156	57.2817	41.0156	56.545	41.0156	57.8749	41.0156	57.1594	41.0156	58.461	41.0156	57.8027	41.0156	59.0019	41.0156	58.4267	41.0156	59.4674	41.0156	58.9926	41.0156	59.8353	41.0156	59.472	41.0156	60.0901	41.0156	59.8449	41.0156	60.2218	41.0156	60.0983	41.0156	60.225
42.4805	58.1289	42.4805	58.1153	42.4805	58.1026	42.4805	58.0688	42.4805	58.0377	42.4805	58.0052	42.4805	57.9444	42.4805	57.949	42.4805	57.8421	42.4805	57.9322	42.4805	57.7602	42.4805	57.99	42.4805	57.7357	42.4805	58.1527	42.4805	57.807	42.4805	58.4363	42.4805	58.0041	42.4805	58.8354	42.4805	58.3367	42.4805	59.3238	42.4805	58.7896	42.4805	59.862	42.4805	59.3268	42.4805	60.407	42.4805	59.9019	42.4805	60.9195	42.4805	60.4693	42.4805	61.3672	42.4805	60.9901	42.4805	61.7259	42.4805	61.4342	42.4805	61.9786	42.4805	61.7802	42.4805	62.1139	42.4805	62.0136	42.4805	62.126
43.9453	59.735	43.9453	59.7135	43.9453	59.7099	43.9453	59.6528	43.9453	59.6391	43.9453	59.5691	43.9453	59.532	43.9453	59.4877	43.9453	59.4077	43.9453	59.4419	43.9453	59.2954	43.9453	59.4695	43.9453	59.2334	43.9453	59.6045	43.9453	59.2638	43.9453	59.866	43.9453	59.4215	43.9453	60.2502	43.9453	59.722	43.9453	60.7307	43.9453	60.1536	43.9453	61.2662	43.9453	60.6804	43.9453	61.8112	43.9453	61.254	43.9453	62.3244	43.9453	61.8257	43.9453	62.7725	43.9453	62.3537	43.9453	63.1304	43.9453	62.8061	43.9453	63.3808	43.9453	63.1603	43.9453	63.5126	43.9453	63.401	43.9453	63.5197
45.4102	61.4056	45.4102	61.3962	45.4102	61.3757	45.4102	61.3552	45.4102	61.3076	45.4102	61.2991	45.4102	61.2113	45.4102	61.253	45.4102	61.1068	45.4102	61.249	45.4102	61.0237	45.4102	61.3217	45.4102	60.9996	45.4102	61.5	45.4102	61.0735	45.4102	61.7974	45.4102	61.2754	45.4102	62.2062	45.4102	61.6144	45.4102	62.6989	45.4102	62.0742	45.4102	63.2361	45.4102	62.6175	45.4102	63.7757	45.4102	63.1977	45.4102	64.28	45.4102	63.7689	45.4102	64.7181	45.4102	64.2927	45.4102	65.0671	45.4102	64.7395	45.4102	65.3106	45.4102	65.0886	45.4102	65.4379	45.4102	65.3259	45.4102	65.4435
47.6074	64.8419	47.6074	64.8468	47.6074	64.8022	47.6074	64.8206	47.6074	64.7297	47.6074	64.7732	47.6074	64.6329	47.6074	64.7204	47.6074	64.5269	47.6074	64.6839	47.6074	64.4337	47.6074	64.6886	47.6074	64.3807	47.6074	64.7594	47.6074	64.3975	47.6074	64.915	47.6074	64.5089	47.6074	65.1618	47.6074	64.7279	47.6074	65.4908	47.6074	65.0494	47.6074	65.8789	47.6074	65.4513	47.6074	66.2944	47.6074	65.8996	47.6074	66.703	47.6074	66.3562	47.6074	67.0732	47.6074	66.7853	47.6074	67.3787	47.6074	67.1573	47.6074	67.5994	47.6074	67.4495	47.6074	67.7218	47.6074	67.6462	47.6074	67.7381
49.0723	66.8966	49.0723	66.8629	49.0723	66.8876	49.0723	66.7909	49.0723	66.8376	49.0723	66.6918	49.0723	66.7545	49.0723	66.5837	49.0723	66.653	49.0723	66.4918	49.0723	66.5546	49.0723	66.447	49.0723	66.4872	49.0723	66.4805	49.0723	66.4816	49.0723	66.6167	49.0723	66.5658	49.0723	66.8645	49.0723	66.7565	49.0723	67.2129	49.0723	67.0531	49.0723	67.6333	49.0723	67.4359	49.0723	68.0873	49.0723	67.8716	49.0723	68.5346	49.0723	68.3212	49.0723	68.9398	49.0723	68.7471	49.0723	69.2747	49.0723	69.1174	49.0723	69.5184	49.0723	69.4077	49.0723	69.6577	49.0723	69.6006	49.0723	69.6855
50.5371	68.2668	50.5371	68.2317	50.5371	68.2587	50.5371	68.1584	50.5371	68.2082	50.5371	68.0579	50.5371	68.1219	50.5371	67.9479	50.5371	68.0126	50.5371	67.8523	50.5371	67.9	50.5371	67.8003	50.5371	67.8101	50.5371	67.8214	50.5371	67.7731	50.5371	67.9388	50.5371	67.8181	50.5371	68.1614	50.5371	67.9652	50.5371	68.4799	50.5371	68.2185	50.5371	68.8683	50.5371	68.5632	50.5371	69.2903	50.5371	68.9688	50.5371	69.7078	50.5371	69.3974	50.5371	70.0863	50.5371	69.8108	50.5371	70.3977	50.5371	70.1759	50.5371	70.6216	50.5371	70.4668	50.5371	70.7445	50.5371	70.665	50.5371	70.7593
52.7344	69.7228	52.7344	69.6981	52.7344	69.708	52.7344	69.6393	52.7344	69.6539	52.7344	69.5581	52.7344	69.5671	52.7344	69.4726	52.7344	69.4605	52.7344	69.4069	52.7344	69.354	52.7344	69.389	52.7344	69.2742	52.7344	69.4459	52.7344	69.2514	52.7344	69.597	52.7344	69.3141	52.7344	69.8476	52.7344	69.4814	52.7344	70.1855	52.7344	69.7558	52.7344	70.5836	52.7344	70.1207	52.7344	71.007	52.7344	70.5446	52.7344	71.4195	52.7344	70.9891	52.7344	71.7887	52.7344	71.4164	52.7344	72.0885	52.7344	71.794	52.7344	72.2999	52.7344	72.0966	52.7344	72.4101	52.7344	72.3065	52.7344	72.4126
54.1992	71.0558	54.1992	71.0409	54.1992	71.0369	54.1992	70.9972	54.1992	70.985	54.1992	70.9349	54.1992	70.9062	54.1992	70.8701	54.1992	70.8126	54.1992	70.8236	54.1992	70.7226	54.1992	70.8196	54.1992	70.6598	54.1992	70.8813	54.1992	70.651	54.1992	71.0255	54.1992	70.721	54.1992	71.2573	54.1992	70.8857	54.1992	71.5671	54.1992	71.1468	54.1992	71.9323	54.1992	71.4895	54.1992	72.3223	54.1992	71.886	54.1992	72.7044	54.1992	72.3017	54.1992	73.0485	54.1992	72.7018	54.1992	73.3296	54.1992	73.056	54.1992	73.5288	54.1992	73.3403	54.1992	73.6334	54.1992	73.5374	54.1992	73.6366
56.3965	72.6333	56.3965	72.6205	56.3965	72.6178	56.3965	72.5837	56.3965	72.5747	56.3965	72.5318	56.3965	72.5094	56.3965	72.4784	56.3965	72.4321	56.3965	72.4414	56.3965	72.3585	56.3965	72.4409	56.3965	72.3084	56.3965	72.4966	56.3965	72.3039	56.3965	72.6231	56.3965	72.3658	56.3965	72.8256	56.3965	72.5081	56.3965	73.0972	56.3965	72.7335	56.3965	73.4196	56.3965	73.0313	56.3965	73.767	56.3965	73.3792	56.3965	74.1103	56.3965	73.7479	56.3965	74.4219	56.3965	74.1066	56.3965	74.678	56.3965	74.4271	56.3965	74.8602	56.3965	74.6863	56.3965	74.956	56.3965	74.8671	56.3965	74.9586
58.5938	74.0883	58.5938	74.0819	58.5938	74.0695	58.5938	74.054	58.5938	74.0257	58.5938	74.0123	58.5938	73.9616	58.5938	73.9686	58.5938	73.8862	58.5938	73.938	58.5938	73.8128	58.5938	73.9378	58.5938	73.7585	58.5938	73.9847	58.5938	73.743	58.5938	74.0916	58.5938	73.7848	58.5938	74.2639	58.5938	73.8978	58.5938	74.4969	58.5938	74.0863	58.5938	74.7761	58.5938	74.3432	58.5938	75.0796	58.5938	74.6502	58.5938	75.3817	58.5938	74.9819	58.5938	75.6572	58.5938	75.3099	58.5938	75.8837	58.5938	75.6075	58.5938	76.0432	58.5938	75.8518	58.5938	76.1236	58.5938	76.0257	58.5938	76.118
60.0586	74.9014	60.0586	74.9015	60.0586	74.8779	60.0586	74.8815	60.0586	74.8315	60.0586	74.8485	60.0586	74.7662	60.0586	74.8129	60.0586	74.6904	60.0586	74.788	60.0586	74.6162	60.0586	74.7893	60.0586	74.5595	60.0586	74.8315	60.0586	74.5381	60.0586	74.9264	60.0586	74.5695	60.0586	75.0795	60.0586	74.6669	60.0586	75.2872	60.0586	74.8353	60.0586	75.5377	60.0586	75.0688	60.0586	75.8115	60.0586	75.3518	60.0586	76.0856	60.0586	75.6609	60.0586	76.3364	60.0586	75.9694	60.0586	76.5426	60.0586	76.2518	60.0586	76.6869	60.0586	76.4857	60.0586	76.757	60.0586	76.6543	60.0586	76.7465
62.2559	75.8885	62.2559	75.8956	62.2559	75.8623	62.2559	75.8863	62.2559	75.8177	62.2559	75.8665	62.2559	75.7588	62.2559	75.8452	62.2559	75.6931	62.2559	75.8336	62.2559	75.6316	62.2559	75.8449	62.2559	75.5885	62.2559	75.8917	62.2559	75.5792	62.2559	75.9842	62.2559	75.6186	62.2559	76.127	62.2559	75.7176	62.2559	76.3179	62.2559	75.8801	62.2559	76.5467	62.2559	76.1006	62.2559	76.797	62.2559	76.365	62.2559	77.0483	62.2559	76.6525	62.2559	77.2792	62.2559	76.939	62.2559	77.4699	62.2559	77.2012	62.2559	77.604	62.2559	77.4185	62.2559	77.6696	62.2559	77.575	62.2559	77.6603
64.4531	76.7767	64.4531	76.7874	64.4531	76.7497	64.4531	76.784	64.4531	76.7071	64.4531	76.7714	64.4531	76.6522	64.4531	76.757	64.4531	76.5917	64.4531	76.7503	64.4531	76.5349	64.4531	76.7622	64.4531	76.4938	64.4531	76.8033	64.4531	76.4816	64.4531	76.8822	64.4531	76.5113	64.4531	77.0035	64.4531	76.5925	64.4531	77.1658	64.4531	76.7293	64.4531	77.3614	64.4531	76.9183	64.4531	77.5767	64.4531	77.1481	64.4531	77.7942	64.4531	77.4012	64.4531	77.9949	64.4531	77.6566	64.4531	78.1608	64.4531	77.8931	64.4531	78.2765	64.4531	78.0914	64.4531	78.3309	64.4531	78.2364	64.4531	78.3178
66.6504	77.6916	66.6504	77.7067	66.6504	77.6628	66.6504	77.7095	66.6504	77.6212	66.6504	77.7041	66.6504	77.5702	66.6504	77.6962	66.6504	77.5158	66.6504	77.6939	66.6504	77.4663	66.6504	77.706	66.6504	77.4319	66.6504	77.7416	66.6504	77.4239	66.6504	77.8086	66.6504	77.4531	66.6504	77.9112	66.6504	77.5276	66.6504	78.0494	66.6504	77.6507	66.6504	78.2173	66.6504	77.8193	66.6504	78.4041	66.6504	78.0238	66.6504	78.5948	66.6504	78.249	66.6504	78.7726	66.6504	78.4768	66.6504	78.9212	66.6504	78.6879	66.6504	79.026	66.6504	78.8651	66.6504	79.0764	66.6504	78.9943	66.6504	79.0661
69.5801	78.7028	69.5801	78.7144	69.5801	78.6819	69.5801	78.7178	69.5801	78.6524	69.5801	78.716	69.5801	78.6171	69.5801	78.7138	69.5801	78.5807	69.5801	78.7176	69.5801	78.5496	69.5801	78.7343	69.5801	78.5317	69.5801	78.7713	69.5801	78.5357	69.5801	78.8347	69.5801	78.5697	69.5801	78.928	69.5801	78.6397	69.5801	79.0513	69.5801	78.7486	69.5801	79.1997	69.5801	78.894	69.5801	79.3644	69.5801	79.0687	69.5801	79.5328	69.5801	79.2608	69.5801	79.6905	69.5801	79.4552	69.5801	79.8231	69.5801	79.6358	69.5801	79.9176	69.5801	79.7876	69.5801	79.9645	69.5801	79.8979	69.5801	79.9583
71.7773	79.5086	71.7773	79.5208	71.7773	79.4898	71.7773	79.5271	71.7773	79.4649	71.7773	79.5301	71.7773	79.4361	71.7773	79.5335	71.7773	79.4072	71.7773	79.5423	71.7773	79.3832	71.7773	79.5621	71.7773	79.3706	71.7773	79.5986	71.7773	79.3763	71.7773	79.6567	71.7773	79.4068	71.7773	79.7394	71.7773	79.4674	71.7773	79.8467	71.7773	79.5606	71.7773	79.9748	71.7773	79.685	71.7773	80.1163	71.7773	79.835	71.7773	80.2609	71.7773	80.001	71.7773	80.3962	71.7773	80.1705	71.7773	80.5096	71.7773	80.3293	71.7773	80.5897	71.7773	80.4641	71.7773	80.628	71.7773	80.5635	71.7773	80.6194
73.9746	80.2419	73.9746	80.2553	73.9746	80.2237	73.9746	80.2647	73.9746	80.2014	73.9746	80.272	73.9746	80.1767	73.9746	80.2803	73.9746	80.1527	73.9746	80.2933	73.9746	80.1335	73.9746	80.3157	73.9746	80.1245	73.9746	80.3521	73.9746	80.1312	73.9746	80.4063	73.9746	80.1592	73.9746	80.4808	73.9746	80.213	73.9746	80.5755	73.9746	80.2948	73.9746	80.6876	73.9746	80.4038	73.9746	80.8109	73.9746	80.5356	73.9746	80.9365	73.9746	80.6821	73.9746	81.0538	73.9746	80.8326	73.9746	81.1516	73.9746	80.9748	73.9746	81.2199	73.9746	81.0966	73.9746	81.2509	73.9746	81.1876	73.9746	81.2403
76.9043	81.1617	76.9043	81.1778	76.9043	81.1437	76.9043	81.1926	76.9043	81.1244	76.9043	81.2072	76.9043	81.1052	76.9043	81.2236	76.9043	81.0882	76.9043	81.2446	76.9043	81.0767	76.9043	81.2732	76.9043	81.0745	76.9043	81.3126	76.9043	81.0857	76.9043	81.3656	76.9043	81.1144	76.9043	81.4337	76.9043	81.1641	76.9043	81.5169	76.9043	81.2365	76.9043	81.6128	76.9043	81.3311	76.9043	81.7166	76.9043	81.4446	76.9043	81.8213	76.9043	81.5706	76.9043	81.9182	76.9043	81.7006	76.9043	81.9981	76.9043	81.8243	76.9043	82.0526	76.9043	81.9314	76.9043	82.075	76.9043	82.0128	76.9043	82.0618
79.834	82.0431	79.834	82.0621	79.834	82.0251	79.834	82.0822	79.834	82.0086	79.834	82.1041	79.834	81.9945	79.834	82.1287	79.834	81.9844	79.834	82.1578	79.834	81.9804	79.834	82.193	79.834	81.9851	79.834	82.2362	79.834	82.0013	79.834	82.2891	79.834	82.0318	79.834	82.3526	79.834	82.079	79.834	82.4263	79.834	82.1442	79.834	82.5085	79.834	82.227	79.834	82.5953	79.834	82.3248	79.834	82.6813	79.834	82.433	79.834	82.7597	79.834	82.5447	79.834	82.8232	79.834	82.6517	79.834	82.8648	79.834	82.7453	79.834	82.8792	79.834	82.8179	79.834	82.8636
82.7637	82.8938	82.7637	82.9142	82.7637	82.8769	82.7637	82.9379	82.7637	82.8638	82.7637	82.9651	82.7637	82.8552	82.7637	82.9959	82.7637	82.8519	82.7637	83.031	82.7637	82.8551	82.7637	83.0711	82.7637	82.8663	82.7637	83.1169	82.7637	82.8872	82.7637	83.1691	82.7637	82.9193	82.7637	83.228	82.7637	82.9642	82.7637	83.2932	82.7637	83.0228	82.7637	83.3632	82.7637	83.0946	82.7637	83.4351	82.7637	83.178	82.7637	83.505	82.7637	83.2695	82.7637	83.5675	82.7637	83.3638	82.7637	83.6169	82.7637	83.4546	82.7637	83.6479	82.7637	83.5348	82.7637	83.6561	82.7637	83.5981	82.7637	83.6395
85.6934	83.713	85.6934	83.7332	85.6934	83.6984	85.6934	83.7586	85.6934	83.6897	85.6934	83.789	85.6934	83.687	85.6934	83.8241	85.6934	83.6907	85.6934	83.8635	85.6934	83.7011	85.6934	83.9071	85.6934	83.7186	85.6934	83.9547	85.6934	83.744	85.6934	84.0063	85.6934	83.778	85.6934	84.0615	85.6934	83.8213	85.6934	84.1199	85.6934	83.8742	85.6934	84.1801	85.6934	83.9367	85.6934	84.24	85.6934	84.0074	85.6934	84.2967	85.6934	84.084	85.6934	84.3464	85.6934	84.1625	85.6934	84.3846	85.6934	84.2381	85.6934	84.4075	85.6934	84.3054	85.6934	84.4116	85.6934	84.3592	85.6934	84.3954
88.623	84.4613	88.623	84.4797	88.623	84.4506	88.623	84.5054	88.623	84.4479	88.623	84.5378	88.623	84.4529	88.623	84.5758	88.623	84.4653	88.623	84.6186	88.623	84.4848	88.623	84.665	88.623	84.5107	88.623	84.7142	88.623	84.5427	88.623	84.7653	88.623	84.5807	88.623	84.8176	88.623	84.6244	88.623	84.8702	88.623	84.6737	88.623	84.9221	88.623	84.7283	88.623	84.9719	88.623	84.7874	88.623	85.0176	88.623	84.8492	88.623	85.0567	88.623	84.9114	88.623	85.0863	88.623	84.9706	88.623	85.1036	88.623	85.023	88.623	85.1063	88.623	85.065	88.623	85.0933
91.5527	85.1631	91.5527	85.1801	91.5527	85.1549	91.5527	85.2053	91.5527	85.1554	91.5527	85.2376	91.5527	85.1643	91.5527	85.2757	91.5527	85.1806	91.5527	85.3179	91.5527	85.2032	91.5527	85.3626	91.5527	85.2309	91.5527	85.4082	91.5527	85.2625	91.5527	85.4533	91.5527	85.2971	91.5527	85.4968	91.5527	85.334	91.5527	85.538	91.5527	85.3729	91.5527	85.5761	91.5527	85.4136	91.5527	85.6105	91.5527	85.4559	91.5527	85.6403	91.5527	85.4993	91.5527	85.6644	91.5527	85.5425	91.5527	85.6811	91.5527	85.584	91.5527	85.6892	91.5527	85.6215	91.5527	85.6873	91.5527	85.6525	91.5527	85.6749
94.4824	85.8014	94.4824	85.8192	94.4824	85.7933	94.4824	85.8462	94.4824	85.795	94.4824	85.8808	94.4824	85.8058	94.4824	85.9214	94.4824	85.8244	94.4824	85.9658	94.4824	85.8493	94.4824	86.0116	94.4824	85.8785	94.4824	86.0567	94.4824	85.9103	94.4824	86.0993	94.4824	85.9432	94.4824	86.1379	94.4824	85.9762	94.4824	86.1717	94.4824	86.0086	94.4824	86.2001	94.4824	86.0405	94.4824	86.2231	94.4824	86.0719	94.4824	86.2406	94.4824	86.1031	94.4824	86.2524	94.4824	86.134	94.4824	86.2582	94.4824	86.164	94.4824	86.2576	94.4824	86.192	94.4824	86.2503	94.4824	86.2167	94.4824	86.2365
98.1445	86.4611	98.1445	86.4804	98.1445	86.4531	98.1445	86.5101	98.1445	86.4564	98.1445	86.5486	98.1445	86.47	98.1445	86.5935	98.1445	86.4923	98.1445	86.642	98.1445	86.521	98.1445	86.691	98.1445	86.5535	98.1445	86.7378	98.1445	86.5874	98.1445	86.7797	98.1445	86.6205	98.1445	86.8151	98.1445	86.6512	98.1445	86.8427	98.1445	86.6787	98.1445	86.8623	98.1445	86.7027	98.1445	86.8742	98.1445	86.7239	98.1445	86.879	98.1445	86.7431	98.1445	86.878	98.1445	86.7614	98.1445	86.8719	98.1445	86.7794	98.1445	86.8619	98.1445	86.7976	98.1445	86.8486	98.1445	86.8156	98.1445	86.8329
101.807	86.9017	101.807	86.922	101.807	86.894	101.807	86.9538	101.807	86.8987	101.807	86.9951	101.807	86.9146	101.807	87.0431	101.807	86.9398	101.807	87.0944	101.807	86.9714	101.807	87.1454	101.807	87.0064	101.807	87.1926	101.807	87.0415	101.807	87.2331	101.807	87.0741	101.807	87.2645	101.807	87.102	101.807	87.2856	101.807	87.1241	101.807	87.2963	101.807	87.1403	101.807	87.2972	101.807	87.1513	101.807	87.29	101.807	87.1587	101.807	87.2766	101.807	87.1647	101.807	87.2595	101.807	87.171	101.807	87.2406	101.807	87.1793	101.807	87.2219	101.807	87.1905	101.807	87.2049
105.469	87.1059	105.469	87.1256	105.469	87.0992	105.469	87.1572	105.469	87.1052	105.469	87.1984	105.469	87.1226	105.469	87.2462	105.469	87.149	105.469	87.2967	105.469	87.1814	105.469	87.346	105.469	87.2161	105.469	87.3903	105.469	87.2496	105.469	87.426	105.469	87.2788	105.469	87.4509	105.469	87.3013	105.469	87.4635	105.469	87.3157	105.469	87.4639	105.469	87.3219	105.469	87.453	105.469	87.3211	105.469	87.4334	105.469	87.3155	105.469	87.4079	105.469	87.3079	105.469	87.3801	105.469	87.3014	105.469	87.3531	105.469	87.2988	105.469	87.3299	105.469	87.3021	105.469	87.3125
109.131	87.0978	109.131	87.117	109.131	87.093	109.131	87.1493	109.131	87.1022	109.131	87.1923	109.131	87.1239	109.131	87.2428	109.131	87.1554	109.131	87.2964	109.131	87.1933	109.131	87.3488	109.131	87.2335	109.131	87.3957	109.131	87.2719	109.131	87.4334	109.131	87.3049	109.131	87.459	109.131	87.3296	109.131	87.4711	109.131	87.3445	109.131	87.4694	109.131	87.3491	109.131	87.4555	109.131	87.3447	109.131	87.4319	109.131	87.3338	109.131	87.4022	109.131	87.3196	109.131	87.3706	109.131	87.306	109.131	87.3411	109.131	87.2967	109.131	87.3171	109.131	87.2945	109.131	87.3012
112.793	86.8786	112.793	86.8981	112.793	86.875	112.793	86.9321	112.793	86.8868	112.793	86.9781	112.793	86.9124	112.793	87.0323	112.793	86.9488	112.793	87.0902	112.793	86.9921	112.793	87.147	112.793	87.0376	112.793	87.1977	112.793	87.081	112.793	87.2381	112.793	87.1179	112.793	87.2652	112.793	87.145	112.793	87.2769	112.793	87.1604	112.793	87.2732	112.793	87.1635	112.793	87.2554	112.793	87.1555	112.793	87.2268	112.793	87.1391	112.793	87.1915	112.793	87.1183	112.793	87.1545	112.793	87.0977	112.793	87.1207	112.793	87.0819	112.793	87.0945	112.793	87.0748	112.793	87.0788
116.455	86.5189	116.455	86.5375	116.455	86.5166	116.455	86.5709	116.455	86.53	116.455	86.6166	116.455	86.5575	116.455	86.6706	116.455	86.5957	116.455	86.7282	116.455	86.6404	116.455	86.784	116.455	86.6869	116.455	86.8331	116.455	86.7302	116.455	86.8709	116.455	86.7658	116.455	86.8939	116.455	86.79	116.455	86.9003	116.455	86.8007	116.455	86.8898	116.455	86.7974	116.455	86.8643	116.455	86.7812	116.455	86.8273	116.455	86.7554	116.455	86.7838	116.455	86.7246	116.455	86.7396	116.455	86.6942	116.455	86.7005	116.455	86.6698	116.455	86.6716	116.455	86.6561	116.455	86.6564
120.85	86.1149	120.85	86.132	120.85	86.1141	120.85	86.1642	120.85	86.1291	120.85	86.2087	120.85	86.1579	120.85	86.2616	120.85	86.1973	120.85	86.3179	120.85	86.2428	120.85	86.3723	120.85	86.2893	120.85	86.4193	120.85	86.3318	120.85	86.4543	120.85	86.3655	120.85	86.4736	120.85	86.3864	120.85	86.4751	120.85	86.3924	120.85	86.4586	120.85	86.3826	120.85	86.4261	120.85	86.3588	120.85	86.3816	120.85	86.3242	120.85	86.3306	120.85	86.284	120.85	86.2798	120.85	86.2446	120.85	86.2358	120.85	86.2122	120.85	86.2045	120.85	86.1926	120.85	86.1896
125.244	85.6616	125.244	85.6775	125.244	85.662	125.244	85.7084	125.244	85.6782	125.244	85.7515	125.244	85.7082	125.244	85.8028	125.244	85.7486	125.244	85.8572	125.244	85.7948	125.244	85.9092	125.244	85.8418	125.244	85.9534	125.244	85.8839	125.244	85.9847	125.244	85.9162	125.244	85.9994	125.244	85.9347	125.244	85.9955	125.244	85.9366	125.244	85.9727	125.244	85.9213	125.244	85.9334	125.244	85.8903	125.244	85.8818	125.244	85.8473	125.244	85.8242	125.244	85.7979	125.244	85.7679	125.244	85.7492	125.244	85.7202	125.244	85.7084	125.244	85.6877	125.244	85.6819	125.244	85.6745
129.639	85.1676	129.639	85.1851	129.639	85.1657	129.639	85.2168	129.639	85.1791	129.639	85.26	129.639	85.2057	129.639	85.3104	129.639	85.2423	129.639	85.363	129.639	85.2842	129.639	85.4121	129.639	85.3262	129.639	85.452	129.639	85.3628	129.639	85.4776	129.639	85.3889	129.639	85.4852	129.639	85.4002	129.639	85.4724	129.639	85.3941	129.639	85.4395	129.639	85.37	129.639	85.3888	129.639	85.3296	129.639	85.3253	129.639	85.2769	129.639	85.2557	129.639	85.2182	129.639	85.1884	129.639	85.1612	129.639	85.1316	129.639	85.114	129.639	85.0925	129.639	85.084	129.639	85.0761
134.033	84.7117	134.033	84.7287	134.033	84.7095	134.033	84.759	134.033	84.7215	134.033	84.7997	134.033	84.7459	134.033	84.8467	134.033	84.7791	134.033	84.8945	134.033	84.8167	134.033	84.9375	134.033	84.8532	134.033	84.9697	134.033	84.8831	134.033	84.9862	134.033	84.901	134.033	84.9829	134.033	84.9028	134.033	84.9578	134.033	84.8858	134.033	84.9113	134.033	84.8495	134.033	84.8464	134.033	84.7958	134.033	84.7685	134.033	84.7293	134.033	84.6855	134.033	84.6569	134.033	84.6066	134.033	84.5873	134.033	84.5412	134.033	84.5295	134.033	84.4974	134.033	84.4919	134.033	84.4804
138.428	84.1698	138.428	84.1865	138.428	84.1699	138.428	84.2186	138.428	84.1862	138.428	84.2632	138.428	84.2166	138.428	84.3158	138.428	84.2573	138.428	84.3708	138.428	84.3033	138.428	84.422	138.428	84.349	138.428	84.4632	138.428	84.3882	138.428	84.4886	138.428	84.4153	138.428	84.494	138.428	84.4257	138.428	84.477	138.428	84.4163	138.428	84.4375	138.428	84.3863	138.428	84.3784	138.428	84.3377	138.428	84.3053	138.428	84.2749	138.428	84.226	138.428	84.205	138.428	84.15	138.428	84.1366	138.428	84.0868	138.428	84.0792	138.428	84.0446	138.428	84.0413	138.428	84.0289
143.555	83.6206	143.555	83.635	143.555	83.622	143.555	83.6639	143.555	83.6388	143.555	83.7046	143.555	83.6689	143.555	83.753	143.555	83.7089	143.555	83.8036	143.555	83.7541	143.555	83.8506	143.555	83.7991	143.555	83.8879	143.555	83.8378	143.555	83.9099	143.555	83.8648	143.555	83.9125	143.555	83.8753	143.555	83.8932	143.555	83.866	143.555	83.8521	143.555	83.836	143.555	83.7923	143.555	83.7868	143.555	83.7192	143.555	83.7227	143.555	83.641	143.555	83.6505	143.555	83.567	143.555	83.5789	143.555	83.5069	143.555	83.5175	143.555	83.4687	143.555	83.4749	143.555	83.4576
148.682	83.2236	148.682	83.2437	148.682	83.2185	148.682	83.2778	148.682	83.2283	148.682	83.323	148.682	83.2511	148.682	83.3752	148.682	83.2836	148.682	83.4291	148.682	83.3214	148.682	83.4786	148.682	83.3591	148.682	83.5176	148.682	83.3911	148.682	83.5404	148.682	83.4118	148.682	83.5425	148.682	83.4167	148.682	83.5213	148.682	83.4027	148.682	83.4767	148.682	83.3692	148.682	83.4115	148.682	83.3178	148.682	83.3313	148.682	83.2532	148.682	83.2442	148.682	83.1825	148.682	83.1599	148.682	83.1146	148.682	83.0886	148.682	83.0591	148.682	83.039	148.682	83.0245	148.682	83.017
153.809	82.85	153.809	82.864	153.809	82.85	153.809	82.8909	153.809	82.8635	153.809	82.9281	153.809	82.8886	153.809	82.9712	153.809	82.9217	153.809	83.0149	153.809	82.958	153.809	83.0531	153.809	82.9918	153.809	83.0794	153.809	83.0171	153.809	83.0879	153.809	83.0281	153.809	83.0741	153.809	83.0198	153.809	83.0355	153.809	82.9893	153.809	82.9724	153.809	82.9358	153.809	82.8881	153.809	82.8617	153.809	82.7892	153.809	82.7725	153.809	82.6853	153.809	82.6765	153.809	82.5875	153.809	82.5843	153.809	82.5075	153.809	82.5073	153.809	82.4553	153.809	82.4558	153.809	82.4374
159.668	82.3596	159.668	82.3744	159.668	82.3585	159.668	82.4019	159.668	82.3707	159.668	82.4397	159.668	82.3943	159.668	82.4838	159.668	82.4261	159.668	82.529	159.668	82.4618	159.668	82.5691	159.668	82.4957	159.668	82.5977	159.668	82.5218	159.668	82.6086	159.668	82.5342	159.668	82.5968	159.668	82.5278	159.668	82.5595	159.668	82.499	159.668	82.4965	159.668	82.4469	159.668	82.4111	159.668	82.3734	159.668	82.3099	159.668	82.2838	159.668	82.2028	159.668	82.1868	159.668	82.1015	159.668	82.0931	159.668	82.0182	159.668	82.0146	159.668	81.9634	159.668	81.9623	159.668	81.9441
164.795	81.9711	164.795	81.9813	164.795	81.9728	164.795	82.0026	164.795	81.9861	164.795	82.0328	164.795	82.0096	164.795	82.0685	164.795	82.0404	164.795	82.1054	164.795	82.0748	164.795	82.1379	164.795	82.1078	164.795	82.1603	164.795	82.1339	164.795	82.1669	164.795	82.1474	164.795	82.1532	164.795	82.1434	164.795	82.1167	164.795	82.1182	164.795	82.0574	164.795	82.0708	164.795	81.9784	164.795	82.0025	164.795	81.8863	164.795	81.9181	164.795	81.7902	164.795	81.8253	164.795	81.7011	164.795	81.7342	164.795	81.63	164.795	81.6559	164.795	81.5864	164.795	81.6006	164.795	81.5762
170.654	81.8194	170.654	81.8361	170.654	81.8132	170.654	81.8623	170.654	81.8171	170.654	81.8958	170.654	81.8297	170.654	81.9331	170.654	81.8483	170.654	81.9693	170.654	81.8691	170.654	81.999	170.654	81.8873	170.654	82.0158	170.654	81.8977	170.654	82.0142	170.654	81.895	170.654	81.9895	170.654	81.8748	170.654	81.9394	170.654	81.8342	170.654	81.8643	170.654	81.7725	170.654	81.7679	170.654	81.6923	170.654	81.6574	170.654	81.5989	170.654	81.5427	170.654	81.5006	170.654	81.4356	170.654	81.4077	170.654	81.3479	170.654	81.3316	170.654	81.2896	170.654	81.2822	170.654	81.2671
176.514	81.6191	176.514	81.6311	176.514	81.6186	176.514	81.654	176.514	81.6293	176.514	81.6857	176.514	81.6496	176.514	81.7231	176.514	81.677	176.514	81.7613	176.514	81.7074	176.514	81.7948	176.514	81.7359	176.514	81.8172	176.514	81.7568	176.514	81.8222	176.514	81.7641	176.514	81.8048	176.514	81.7527	176.514	81.762	176.514	81.7188	176.514	81.6937	176.514	81.6613	176.514	81.6033	176.514	81.5821	176.514	81.4977	176.514	81.4869	176.514	81.387	176.514	81.3843	176.514	81.2833	176.514	81.2856	176.514	81.1988	176.514	81.2028	176.514	81.1442	176.514	81.147	176.514	81.1263
183.105	81.3622	183.105	81.3745	183.105	81.3612	183.105	81.3976	183.105	81.371	183.105	81.4299	183.105	81.3902	183.105	81.4685	183.105	81.4166	183.105	81.509	183.105	81.4465	183.105	81.5461	183.105	81.4754	183.105	81.5731	183.105	81.4977	183.105	81.5838	183.105	81.5078	183.105	81.5727	183.105	81.5004	183.105	81.5364	183.105	81.4718	183.105	81.4745	183.105	81.4207	183.105	81.3901	183.105	81.3489	183.105	81.2899	183.105	81.2613	183.105	81.1837	183.105	81.1664	183.105	81.0836	183.105	81.0748	183.105	81.0015	183.105	80.9981	183.105	80.9477	183.105	80.9469	183.105	80.9289
189.697	81.1294	189.697	81.1384	189.697	81.1289	189.697	81.1553	189.697	81.1368	189.697	81.1789	189.697	81.1523	189.697	81.2072	189.697	81.1738	189.697	81.2365	189.697	81.1984	189.697	81.2621	189.697	81.2222	189.697	81.2783	189.697	81.2399	189.697	81.2793	189.697	81.2459	189.697	81.2598	189.697	81.2346	189.697	81.2168	189.697	81.2022	189.697	81.1498	189.697	81.1468	189.697	81.0619	189.697	81.0702	189.697	80.96	189.697	80.9773	189.697	80.8539	189.697	80.8765	189.697	80.7555	189.697	80.7787	189.697	80.6766	189.697	80.6955	189.697	80.6273	189.697	80.6379	189.697	80.6139
196.289	80.9132	196.289	80.9207	196.289	80.914	196.289	80.9363	196.289	80.9232	196.289	80.9589	196.289	80.9403	196.289	80.9869	196.289	80.9643	196.289	81.0171	196.289	80.9928	196.289	81.0453	196.289	81.0221	196.289	81.0659	196.289	81.0473	196.289	81.0729	196.289	81.0624	196.289	81.0611	196.289	81.0615	196.289	81.0269	196.289	81.04	196.289	80.9698	196.289	80.9955	196.289	80.8924	196.289	80.929	196.289	80.8012	196.289	80.845	196.289	80.7057	196.289	80.7513	196.289	80.617	196.289	80.6586	196.289	80.5467	196.289	80.5784	196.289	80.5041	196.289	80.5212	196.289	80.4952
202.881	80.3889	202.881	80.3892	202.881	80.3934	202.881	80.3943	202.881	80.403	202.881	80.4046	202.881	80.4181	202.881	80.4195	202.881	80.4392	202.881	80.4376	202.881	80.4656	202.881	80.456	202.881	80.4954	202.881	80.4703	202.881	80.5248	202.881	80.4753	202.881	80.5487	202.881	80.4663	202.881	80.5612	202.881	80.4399	202.881	80.5569	202.881	80.3953	202.881	80.5319	202.881	80.3351	202.881	80.4853	202.881	80.2651	202.881	80.4196	202.881	80.1939	202.881	80.3407	202.881	80.1314	202.881	80.2572	202.881	80.087	202.881	80.1792	202.881	80.068	202.881	80.1169	202.881	80.0782
210.205	80.257	210.205	80.2707	210.205	80.2363	210.205	80.2775	210.205	80.2098	210.205	80.2775	210.205	80.1791	210.205	80.2712	210.205	80.1462	210.205	80.2585	210.205	80.1128	210.205	80.2383	210.205	80.0797	210.205	80.2088	210.205	80.0465	210.205	80.1671	210.205	80.0113	210.205	80.1106	210.205	79.9716	210.205	80.0379	210.205	79.9244	210.205	79.9499	210.205	79.8677	210.205	79.8501	210.205	79.8012	210.205	79.7453	210.205	79.7269	210.205	79.644	210.205	79.6493	210.205	79.556	210.205	79.5746	210.205	79.4898	210.205	79.5105	210.205	79.4514	210.205	79.4645	210.205	79.4434
217.529	80.0801	217.529	80.0961	217.529	80.0613	217.529	80.1092	217.529	80.04	217.529	80.1193	217.529	80.0166	217.529	80.1255	217.529	79.9914	217.529	80.1262	217.529	79.9641	217.529	80.1185	217.529	79.9338	217.529	80.0984	217.529	79.8984	217.529	80.0617	217.529	79.855	217.529	80.0047	217.529	79.8009	217.529	79.9256	217.529	79.7339	217.529	79.8251	217.529	79.6539	217.529	79.7076	217.529	79.5628	217.529	79.5807	217.529	79.4655	217.529	79.4544	217.529	79.3689	217.529	79.3401	217.529	79.2817	217.529	79.2483	217.529	79.213	217.529	79.1871	217.529	79.1707	217.529	79.161
225.586	79.7545	225.586	79.7744	225.586	79.7293	225.586	79.7892	225.586	79.6997	225.586	79.7998	225.586	79.6674	225.586	79.8065	225.586	79.6344	225.586	79.8092	225.586	79.6027	225.586	79.8061	225.586	79.5729	225.586	79.7939	225.586	79.5443	225.586	79.7686	225.586	79.5145	225.586	79.7263	225.586	79.4801	225.586	79.6648	225.586	79.4382	225.586	79.5843	225.586	79.3867	225.586	79.4885	225.586	79.3261	225.586	79.3841	225.586	79.2591	225.586	79.2801	225.586	79.1908	225.586	79.1864	225.586	79.128	225.586	79.1116	225.586	79.0777	225.586	79.062	225.586	79.0467	225.586	79.0404
232.91	79.7782	232.91	79.7814	232.91	79.7623	232.91	79.7727	232.91	79.7342	232.91	79.7539	232.91	79.6954	232.91	79.7268	232.91	79.6485	232.91	79.6929	232.91	79.5959	232.91	79.6521	232.91	79.5395	232.91	79.6032	232.91	79.4797	232.91	79.5437	232.91	79.416	232.91	79.4712	232.91	79.3469	232.91	79.3844	232.91	79.2712	232.91	79.2844	232.91	79.1887	232.91	79.1753	232.91	79.1011	232.91	79.0638	232.91	79.0121	232.91	78.9583	232.91	78.9271	232.91	78.8676	232.91	78.852	232.91	78.7987	232.91	78.7929	232.91	78.7561	232.91	78.7548	232.91	78.7417
241.699	79.6081	241.699	79.6316	241.699	79.5716	241.699	79.6426	241.699	79.5229	241.699	79.6423	241.699	79.4639	241.699	79.632	241.699	79.3975	241.699	79.612	241.699	79.3269	241.699	79.5813	241.699	79.2544	241.699	79.5376	241.699	79.181	241.699	79.4781	241.699	79.1061	241.699	79.3998	241.699	79.028	241.699	79.3017	241.699	78.9453	241.699	79.1852	241.699	78.8579	241.699	79.0554	241.699	78.7677	241.699	78.92	241.699	78.6791	241.699	78.7888	241.699	78.5981	241.699	78.6716	241.699	78.5314	241.699	78.5765	241.699	78.4851	241.699	78.5089	241.699	78.464	241.699	78.4714
249.756	79.4071	249.756	79.4075	249.756	79.3872	249.756	79.3905	249.756	79.3473	249.756	79.3594	249.756	79.289	249.756	79.3173	249.756	79.2151	249.756	79.2664	249.756	79.1292	249.756	79.2067	249.756	79.035	249.756	79.1364	249.756	78.9346	249.756	79.0519	249.756	78.8294	249.756	78.9501	249.756	78.7195	249.756	78.8294	249.756	78.6048	249.756	78.6917	249.756	78.4865	249.756	78.5427	249.756	78.3672	249.756	78.3917	249.756	78.2519	249.756	78.2498	249.756	78.1466	249.756	78.1278	249.756	78.0581	249.756	78.034	249.756	77.9923	249.756	77.9733	249.756	77.9541	249.756	77.9469
258.545	79.5007	258.545	79.5133	258.545	79.464	258.545	79.5035	258.545	79.4036	258.545	79.4746	258.545	79.3223	258.545	79.4304	258.545	79.2242	258.545	79.3739	258.545	79.1145	258.545	79.3061	258.545	78.9981	258.545	79.2257	258.545	78.8782	258.545	79.1296	258.545	78.7565	258.545	79.0141	258.545	78.633	258.545	78.8769	258.545	78.5074	258.545	78.7192	258.545	78.3797	258.545	78.5465	258.545	78.2522	258.545	78.3689	258.545	78.1293	258.545	78.1992	258.545	78.0173	258.545	78.0505	258.545	77.9236	258.545	77.9335	258.545	77.855	258.545	77.8549	258.545	77.8178	258.545	77.8167
268.066	79.4205	268.066	79.4286	268.066	79.3901	268.066	79.4189	268.066	79.3362	268.066	79.3978	268.066	79.2611	268.066	79.3723	268.066	79.17	268.066	79.3476	268.066	79.0699	268.066	79.3253	268.066	78.9674	268.066	79.3028	268.066	78.8676	268.066	79.2733	268.066	78.7728	268.066	79.2284	268.066	78.6824	268.066	79.1602	268.066	78.5944	268.066	79.0641	268.066	78.5068	268.066	78.9409	268.066	78.4195	268.066	78.7967	268.066	78.3351	268.066	78.6428	268.066	78.2593	268.066	78.4929	268.066	78.1994	268.066	78.3606	268.066	78.1633	268.066	78.257	268.066	78.1581	268.066	78.1887
277.588	79.1684	277.588	79.1376	277.588	79.1587	277.588	79.0723	277.588	79.106	277.588	78.9815	277.588	79.0115	277.588	78.876	277.588	78.8801	277.588	78.7665	277.588	78.7195	277.588	78.6618	277.588	78.54	277.588	78.5662	277.588	78.3529	277.588	78.4795	277.588	78.1692	277.588	78.3969	277.588	77.998	277.588	78.3117	277.588	77.8462	277.588	78.218	277.588	77.7174	277.588	78.1131	277.588	77.6134	277.588	77.9983	277.588	77.5343	277.588	77.8791	277.588	77.4798	277.588	77.7631	277.588	77.4496	277.588	77.6582	277.588	77.4437	277.588	77.5707	277.588	77.4621	277.588	77.5047
287.109	79.1517	287.109	79.1109	287.109	79.1487	287.109	79.0307	287.109	79.1013	287.109	78.9201	287.109	79.0128	287.109	78.7911	287.109	78.8897	287.109	78.6578	287.109	78.7402	287.109	78.5333	287.109	78.5737	287.109	78.4268	287.109	78.399	287.109	78.3414	287.109	78.2243	287.109	78.2735	287.109	78.0562	287.109	78.2147	287.109	77.9007	287.109	78.155	287.109	77.7628	287.109	78.0865	287.109	77.6471	287.109	78.0052	287.109	77.5577	287.109	77.9122	287.109	77.4973	287.109	77.8126	287.109	77.4671	287.109	77.7136	287.109	77.4669	287.109	77.6231	287.109	77.4949	287.109	77.5484
297.363	79.5499	297.363	79.5198	297.363	79.5345	297.363	79.446	297.363	79.4746	297.363	79.3327	297.363	79.3732	297.363	79.1867	297.363	79.2353	297.363	79.0173	297.363	79.0672	297.363	78.835	297.363	78.8759	297.363	78.6507	297.363	78.6692	297.363	78.4736	297.363	78.455	297.363	78.3102	297.363	78.2416	297.363	78.1632	297.363	78.0379	297.363	78.0324	297.363	77.8527	297.363	77.9162	297.363	77.6948	297.363	77.8128	297.363	77.5712	297.363	77.7209	297.363	77.4856	297.363	77.6403	297.363	77.4375	297.363	77.5707	297.363	77.4226	297.363	77.5122	297.363	77.4342	297.363	77.4658
307.617	78.9166	307.617	78.9074	307.617	78.8843	307.617	78.8591	307.617	78.8123	307.617	78.7777	307.617	78.7068	307.617	78.6713	307.617	78.5777	307.617	78.5492	307.617	78.4378	307.617	78.4203	307.617	78.2996	307.617	78.2921	307.617	78.1731	307.617	78.17	307.617	78.0634	307.617	78.0572	307.617	77.9705	307.617	77.9552	307.617	77.8903	307.617	77.8642	307.617	77.8181	307.617	77.7843	307.617	77.751	307.617	77.7156	307.617	77.689	307.617	77.6584	307.617	77.6348	307.617	77.6129	307.617	77.5918	307.617	77.579	307.617	77.5625	307.617	77.5567	307.617	77.5475	307.617	77.5459
318.604	78.8275	318.604	78.8317	318.604	78.7648	318.604	78.7823	318.604	78.6423	318.604	78.688	318.604	78.4638	318.604	78.5595	318.604	78.2378	318.604	78.4091	318.604	77.9781	318.604	78.2484	318.604	77.7028	318.604	78.0867	318.604	77.4329	318.604	77.9301	318.604	77.1886	318.604	77.7811	318.604	76.986	318.604	77.6391	318.604	76.8341	318.604	77.5028	318.604	76.7333	318.604	77.3717	318.604	76.6776	318.604	77.2472	318.604	76.6572	318.604	77.132	318.604	76.662	318.604	77.0293	318.604	76.6835	318.604	76.9413	318.604	76.7163	318.604	76.868	318.604	76.7576	318.604	76.8076
329.59	78.546	329.59	78.5361	329.59	78.4914	329.59	78.4715	329.59	78.3679	329.59	78.366	329.59	78.1763	329.59	78.2361	329.59	77.9237	329.59	78.0987	329.59	77.6234	329.59	77.9675	329.59	77.2948	329.59	77.851	329.59	76.9627	329.59	77.7502	329.59	76.6536	329.59	77.66	329.59	76.3923	329.59	77.5716	329.59	76.1956	329.59	77.4756	329.59	76.0704	329.59	77.3652	329.59	76.013	329.59	77.238	329.59	76.0131	329.59	77.0957	329.59	76.0579	329.59	76.9434	329.59	76.1357	329.59	76.788	329.59	76.2375	329.59	76.6355	329.59	76.3571	329.59	76.4908
341.309	78.9872	341.309	78.8953	341.309	79.0003	341.309	78.7375	341.309	78.9281	341.309	78.5339	341.309	78.7702	341.309	78.3103	341.309	78.5328	341.309	78.097	341.309	78.2292	341.309	77.9228	341.309	77.8808	341.309	77.8081	341.309	77.5168	341.309	77.7588	341.309	77.172	341.309	77.7643	341.309	76.8809	341.309	77.802	341.309	76.6696	341.309	77.8446	341.309	76.5488	341.309	77.8678	341.309	76.513	341.309	77.8543	341.309	76.5458	341.309	77.7962	341.309	76.6285	341.309	77.694	341.309	76.746	341.309	77.5557	341.309	76.8883	341.309	77.3931	341.309	77.0486	341.309	77.22
353.76	79.6832	353.76	79.5145	353.76	79.7561	353.76	79.2552	353.76	79.7309	353.76	78.9152	353.76	79.6083	353.76	78.5105	353.76	79.3913	353.76	78.0662	353.76	79.0874	353.76	77.6178	353.76	78.7095	353.76	77.2102	353.76	78.279	353.76	76.8911	353.76	77.8284	353.76	76.6986	353.76	77.4008	353.76	76.6468	353.76	77.0455	353.76	76.7194	353.76	76.8056	353.76	76.8769	353.76	76.7024	353.76	77.0708	353.76	76.7273	353.76	77.2571	353.76	76.8467	353.76	77.4034	353.76	77.0164	353.76	77.4901	353.76	77.1949	353.76	77.5086	353.76	77.3501	353.76	77.4595
366.211	79.7378	366.211	79.604	366.211	79.7905	366.211	79.3902	366.211	79.7631	366.211	79.1014	366.211	79.6582	366.211	78.7483	366.211	79.4798	366.211	78.3495	366.211	79.2343	366.211	77.9336	366.211	78.9313	366.211	77.5383	366.211	78.5855	366.211	77.2061	366.211	78.2192	366.211	76.9746	366.211	77.8623	366.211	76.8648	366.211	77.5512	366.211	76.8744	366.211	77.3212	366.211	76.9786	366.211	77.1956	366.211	77.14	366.211	77.1769	366.211	77.3186	366.211	77.2442	366.211	77.4803	366.211	77.362	366.211	77.5995	366.211	77.4912	366.211	77.6612	366.211	77.5983	366.211	77.6595
378.662	79.9871	378.662	79.9096	378.662	79.9866	378.662	79.7534	378.662	79.9091	378.662	79.5189	378.662	79.7563	378.662	79.2089	378.662	79.5309	378.662	78.8314	378.662	79.2378	378.662	78.402	378.662	78.8852	378.662	77.9478	378.662	78.4874	378.662	77.5089	378.662	78.0665	378.662	77.1349	378.662	77.6549	378.662	76.8739	378.662	77.2934	378.662	76.7554	378.662	77.0252	378.662	76.7768	378.662	76.8818	378.662	76.9044	378.662	76.8694	378.662	77.0868	378.662	76.9645	378.662	77.2723	378.662	77.1218	378.662	77.4192	378.662	77.2907	378.662	77.5003	378.662	77.4277	378.662	77.5027
392.578	79.6979	392.578	79.6088	392.578	79.7138	392.578	79.4488	392.578	79.6559	392.578	79.2224	392.578	79.5254	392.578	78.9362	392.578	79.3251	392.578	78.6	392.578	79.0606	392.578	78.2272	392.578	78.741	392.578	77.8366	392.578	78.3811	392.578	77.453	392.578	78.0022	392.578	77.1081	392.578	77.6332	392.578	76.8366	392.578	77.3081	392.578	76.6677	392.578	77.0596	392.578	76.614	392.578	76.9102	392.578	76.6643	392.578	76.8635	392.578	76.7857	392.578	76.9015	392.578	76.9351	392.578	76.9907	392.578	77.0715	392.578	77.0917	392.578	77.1644	392.578	77.1691	392.578	77.1975
405.762	79.8641	405.762	79.7954	405.762	79.859	405.762	79.6527	405.762	79.7797	405.762	79.4357	405.762	79.6258	405.762	79.1455	405.762	79.397	405.762	78.7863	405.762	79.0942	405.762	78.3673	405.762	78.7223	405.762	77.9073	405.762	78.293	405.762	77.4371	405.762	77.8293	405.762	77.002	405.762	77.3697	405.762	76.657	405.762	76.9674	405.762	76.4518	405.762	76.6806	405.762	76.4104	405.762	76.5507	405.762	76.516	405.762	76.5808	405.762	76.7177	405.762	76.7315	405.762	76.9504	405.762	76.9386	405.762	77.1558	405.762	77.1379	405.762	77.2918	405.762	77.28	405.762	77.3351
420.41	79.7838	420.41	79.7296	420.41	79.7573	420.41	79.5939	420.41	79.6519	420.41	79.3774	420.41	79.4702	420.41	79.0828	420.41	79.2153	420.41	78.7166	420.41	78.8923	420.41	78.2904	420.41	78.5092	420.41	77.8238	420.41	78.0806	420.41	77.3477	420.41	77.631	420.41	76.905	420.41	77.1976	420.41	76.5474	420.41	76.8278	420.41	76.3223	420.41	76.5683	420.41	76.2536	420.41	76.4477	420.41	76.3276	420.41	76.462	420.41	76.4974	420.41	76.5758	420.41	76.7016	420.41	76.7373	420.41	76.8846	420.41	76.8949	420.41	77.0073	420.41	77.0078	420.41	77.0493
435.059	80.0619	435.059	79.9986	435.059	80.0481	435.059	79.8575	435.059	79.9572	435.059	79.6371	435.059	79.7879	435.059	79.3365	435.059	79.5389	435.059	78.956	435.059	79.2092	435.059	78.5012	435.059	78.8006	435.059	77.986	435.059	78.3214	435.059	77.4392	435.059	77.7915	435.059	76.9093	435.059	77.2493	435.059	76.4643	435.059	76.7559	435.059	76.1762	435.059	76.3876	435.059	76.0905	435.059	76.2094	435.059	76.1982	435.059	76.2384	435.059	76.4375	435.059	76.4288	435.059	76.7237	435.059	76.696	435.059	76.9798	435.059	76.9532	435.059	77.1507	435.059	77.1356	435.059	77.2057
450.439	79.8807	450.439	79.8554	450.439	79.8306	450.439	79.7511	450.439	79.7083	450.439	79.563	450.439	79.516	450.439	79.2856	450.439	79.2562	450.439	78.9142	450.439	78.9315	450.439	78.448	450.439	78.5455	450.439	77.8953	450.439	78.1044	450.439	77.2812	450.439	77.6212	450.439	76.657	450.439	77.1208	450.439	76.104	450.439	76.6459	450.439	75.7192	450.439	76.2569	450.439	75.5735	450.439	76.0166	450.439	75.666	450.439	75.9606	450.439	75.9216	450.439	76.0712	450.439	76.2343	450.439	76.2826	450.439	76.5119	450.439	76.5108	450.439	76.6941	450.439	76.6834	450.439	76.752
466.553	79.9024	466.553	79.8689	466.553	79.8493	466.553	79.7511	466.553	79.7076	466.553	79.5516	466.553	79.4756	466.553	79.2733	466.553	79.1524	466.553	78.9204	466.553	78.7388	466.553	78.4998	466.553	78.2394	466.553	78.023	466.553	77.6666	466.553	77.5106	466.553	77.0468	466.553	76.9971	466.553	76.4281	466.553	76.533	466.553	75.8839	466.553	76.179	466.553	75.5011	466.553	75.9858	466.553	75.3451	466.553	75.9672	466.553	75.4204	466.553	76.0878	466.553	75.6634	466.553	76.2777	466.553	75.9774	466.553	76.4619	466.553	76.2734	466.553	76.58	466.553	76.4898	466.553	76.5944
482.666	80.1794	482.666	80.0906	482.666	80.1864	482.666	79.9222	482.666	80.1082	482.666	79.6752	482.666	79.9395	482.666	79.35	482.666	79.6733	482.666	78.9479	482.666	79.3019	482.666	78.4725	482.666	78.8188	482.666	77.9344	482.666	78.2236	482.666	77.3566	482.666	77.5307	482.666	76.7819	482.666	76.7826	482.666	76.2755	482.666	76.0656	482.666	75.9161	482.666	75.5086	482.666	75.7648	482.666	75.2384	482.666	75.8286	482.666	75.2957	482.666	76.0501	482.666	75.5993	482.666	76.3357	482.666	76.0048	482.666	76.594	482.666	76.3841	482.666	76.7568	482.666	76.6563	482.666	76.7831
500.244	80.4735	500.244	80.419	500.244	80.4517	500.244	80.2791	500.244	80.3598	500.244	80.0429	500.244	80.1992	500.244	79.6997	500.244	79.9667	500.244	79.2416	500.244	79.6552	500.244	78.6677	500.244	79.2551	500.244	77.9906	500.244	78.7594	500.244	77.2465	500.244	78.1697	500.244	76.5078	500.244	77.5069	500.244	75.8856	500.244	76.8241	500.244	75.5017	500.244	76.2148	500.244	75.4225	500.244	75.7962	500.244	75.6093	500.244	75.6531	500.244	75.9453	500.244	75.7754	500.244	76.3041	500.244	76.0616	500.244	76.5931	500.244	76.3837	500.244	76.7579	500.244	76.6409	500.244	76.774
517.822	80.3112	517.822	80.2574	517.822	80.287	517.822	80.125	517.822	80.1826	517.822	79.9106	517.822	79.9946	517.822	79.608	517.822	79.7181	517.822	79.2097	517.822	79.3479	517.822	78.7098	517.822	78.88	517.822	78.1104	517.822	78.3151	517.822	77.4308	517.822	77.6654	517.822	76.7216	517.822	76.9646	517.822	76.0754	517.822	76.2802	517.822	75.6168	517.822	75.716	517.822	75.4467	517.822	75.3845	517.822	75.5688	517.822	75.3449	517.822	75.8806	517.822	75.5575	517.822	76.2418	517.822	75.908	517.822	76.539	517.822	76.2728	517.822	76.7051	517.822	76.5592	517.822	76.7118
536.133	80.25	536.133	80.2131	536.133	80.2157	536.133	80.1024	536.133	80.1081	536.133	79.9105	536.133	79.9205	536.133	79.6259	536.133	79.6428	536.133	79.2346	536.133	79.2628	536.133	78.7248	536.133	78.7694	536.133	78.093	536.133	78.1574	536.133	77.3554	536.133	77.4368	536.133	76.5644	536.133	76.6492	536.133	75.8254	536.133	75.8884	536.133	75.2914	536.133	75.3073	536.133	75.0985	536.133	75.0642	536.133	75.2659	536.133	75.2074	536.133	75.675	536.133	75.6238	536.133	76.1582	536.133	76.1283	536.133	76.5807	536.133	76.5693	536.133	76.8614	536.133	76.8591	536.133	76.959
554.443	80.3592	554.443	80.3622	554.443	80.2993	554.443	80.3007	554.443	80.1837	554.443	80.1609	554.443	80.0058	554.443	79.9244	554.443	79.7512	554.443	79.5707	554.443	79.3982	554.443	79.0809	554.443	78.9203	554.443	78.4453	554.443	78.2918	554.443	77.6754	554.443	77.4993	554.443	76.8241	554.443	76.5644	554.443	76.0106	554.443	75.5824	554.443	75.4188	554.443	74.7617	554.443	75.2139	554.443	74.3745	554.443	75.4069	554.443	74.5416	554.443	75.8405	554.443	75.0977	554.443	76.3187	554.443	75.7646	554.443	76.703	554.443	76.3449	554.443	76.9206	554.443	76.7465	554.443	76.9392
574.219	79.663	574.219	79.5979	574.219	79.6973	574.219	79.5041	574.219	79.6911	574.219	79.3728	574.219	79.63	574.219	79.1822	574.219	79.4953	574.219	78.8998	574.219	79.2641	574.219	78.4879	574.219	78.9085	574.219	77.9135	574.219	78.398	574.219	77.1644	574.219	77.7063	574.219	76.2779	574.219	76.8266	574.219	75.3874	574.219	75.8027	574.219	74.7488	574.219	74.7838	574.219	74.6219	574.219	74.0633	574.219	75.0165	574.219	73.9451	574.219	75.6739	574.219	74.4336	574.219	76.3151	574.219	75.2215	574.219	76.7761	574.219	75.9969	574.219	76.9869	574.219	76.5877	574.219	76.9246
594.727	79.7576	594.727	79.6863	594.727	79.8329	594.727	79.6184	594.727	79.9037	594.727	79.5423	594.727	79.9526	594.727	79.4319	594.727	79.9531	594.727	79.2462	594.727	79.8716	594.727	78.9352	594.727	79.6711	594.727	78.4492	594.727	79.3177	594.727	77.7523	594.727	78.787	594.727	76.8436	594.727	78.0766	594.727	75.8026	594.727	77.229	594.727	74.8603	594.727	76.3669	594.727	74.3937	594.727	75.7117	594.727	74.6317	594.727	75.4952	594.727	75.3674	594.727	75.7584	594.727	76.2088	594.727	76.3017	594.727	76.8947	594.727	76.8674	594.727	77.3151	594.727	77.2776	594.727	77.4401
615.234	79.0207	615.234	79.0144	615.234	78.9581	615.234	78.9381	615.234	78.8449	615.234	78.8056	615.234	78.7105	615.234	78.6349	615.234	78.5798	615.234	78.433	615.234	78.4549	615.234	78.1839	615.234	78.3052	615.234	77.8488	615.234	78.076	615.234	77.3825	615.234	77.7116	615.234	76.7623	615.234	77.1862	615.234	76.0316	615.234	76.5417	615.234	75.3593	615.234	75.9336	615.234	75.0509	615.234	75.6275	615.234	75.3472	615.234	75.8325	615.234	76.1399	615.234	76.4765	615.234	77.0809	615.234	77.2778	615.234	77.8834	615.234	77.9811	615.234	78.4035	615.234	78.4411	615.234	78.5907
637.207	80.3214	637.207	80.3429	637.207	80.2203	637.207	80.2856	637.207	80.0443	637.207	80.1515	637.207	79.8047	637.207	79.9374	637.207	79.5141	637.207	79.6303	637.207	79.179	637.207	79.2065	637.207	78.791	637.207	78.6373	637.207	78.3235	637.207	77.9005	637.207	77.7375	637.207	77.0029	637.207	77	637.207	76.0192	637.207	76.1237	637.207	75.1487	637.207	75.2391	637.207	74.7131	637.207	74.6603	637.207	74.9353	637.207	74.7368	637.207	75.6741	637.207	75.4479	637.207	76.5707	637.207	76.4029	637.207	77.3402	637.207	77.244	637.207	77.8355	637.207	77.7943	637.207	77.994
659.912	80.4628	659.912	80.4237	659.912	80.3949	659.912	80.2893	659.912	80.2178	659.912	80.0753	659.912	79.9404	659.912	79.7923	659.912	79.5786	659.912	79.4363	659.912	79.1462	659.912	78.9853	659.912	78.642	659.912	78.4038	659.912	78.0414	659.912	77.6573	659.912	77.3022	659.912	76.7383	659.912	76.3883	659.912	75.7147	659.912	75.3202	659.912	74.8035	659.912	74.2658	659.912	74.3763	659.912	73.6183	659.912	74.6749	659.912	73.7757	659.912	75.4965	659.912	74.6412	659.912	76.4252	659.912	75.7393	659.912	77.1702	659.912	76.7014	659.912	77.5994	659.912	77.3627	659.912	77.6667
683.35	80.6407	683.35	80.6213	683.35	80.5578	683.35	80.5102	683.35	80.368	683.35	80.3185	683.35	80.0751	683.35	80.0474	683.35	79.6894	683.35	79.6799	683.35	79.2217	683.35	79.1758	683.35	78.6733	683.35	78.4762	683.35	78.0252	683.35	77.5182	683.35	77.2313	683.35	76.2647	683.35	76.23	683.35	74.7789	683.35	74.9915	683.35	73.396	683.35	73.6499	683.35	72.8317	683.35	72.7336	683.35	73.4886	683.35	72.9622	683.35	74.7998	683.35	74.1907	683.35	76.0882	683.35	75.619	683.35	77.0581	683.35	76.7658	683.35	77.6264	683.35	77.4898	683.35	77.7736
706.787	81.9753	706.787	81.8369	706.787	82.0015	706.787	81.6005	706.787	81.9103	706.787	81.2882	706.787	81.7022	706.787	80.9202	706.787	81.3792	706.787	80.4989	706.787	80.9396	706.787	79.9942	706.787	80.3759	706.787	79.3401	706.787	79.6713	706.787	78.4471	706.787	78.7962	706.787	77.2246	706.787	77.7022	706.787	75.6259	706.787	76.3263	706.787	73.7839	706.787	74.6399	706.787	72.3335	706.787	72.846	706.787	72.2811	706.787	71.7744	706.787	73.4718	706.787	72.3229	706.787	74.8684	706.787	73.8282	706.787	75.929	706.787	75.2448	706.787	76.5181	706.787	76.1911	706.787	76.6107
731.689	82.4213	731.689	82.285	731.689	82.4706	731.689	82.072	731.689	82.4314	731.689	81.7989	731.689	82.3066	731.689	81.4823	731.689	82.0964	731.689	81.1263	731.689	81.7893	731.689	80.7104	731.689	81.3554	731.689	80.1829	731.689	80.7466	731.689	79.4644	731.689	79.9035	731.689	78.4615	731.689	78.7711	731.689	77.102	731.689	77.3255	731.689	75.4338	731.689	75.6453	731.689	73.8877	731.689	74.0858	731.689	73.412	731.689	73.3939	731.689	74.2949	731.689	73.9716	731.689	75.6265	731.689	75.198	731.689	76.7113	731.689	76.3603	731.689	77.3412	731.689	77.1519	731.689	77.4861
758.057	82.3188	758.057	82.211	758.057	82.315	758.057	82.004	758.057	82.2019	758.057	81.7198	758.057	81.9947	758.057	81.3804	758.057	81.7166	758.057	80.9938	758.057	81.3858	758.057	80.5411	758.057	81.0005	758.057	79.9744	758.057	80.5252	758.057	79.2257	758.057	79.8889	758.057	78.2241	758.057	78.9957	758.057	76.9275	758.057	77.7506	758.057	75.4123	758.057	76.1218	758.057	74.0947	758.057	74.3373	758.057	73.7851	758.057	73.2453	758.057	74.6881	758.057	73.7203	758.057	76.0026	758.057	75.1295	758.057	77.0779	758.057	76.4782	758.057	77.6911	758.057	77.3911	758.057	77.797
784.424	82.7995	784.424	82.771	784.424	82.732	784.424	82.655	784.424	82.5719	784.424	82.467	784.424	82.3312	784.424	82.2182	784.424	82.0209	784.424	81.9016	784.424	81.64	784.424	81.4822	784.424	81.1665	784.424	80.8994	784.424	80.5574	784.424	80.0778	784.424	79.755	784.424	78.9413	784.424	78.696	784.424	77.4361	784.424	77.3292	784.424	75.6093	784.424	75.6788	784.424	73.8665	784.424	74.0518	784.424	73.2253	784.424	73.3055	784.424	74.1446	784.424	74.0331	784.424	75.6418	784.424	75.4755	784.424	76.8984	784.424	76.7691	784.424	77.665	784.424	77.5985	784.424	77.8992
812.256	82.8222	812.256	82.6923	812.256	82.8225	812.256	82.4455	812.256	82.7037	812.256	82.115	812.256	82.495	812.256	81.7424	812.256	82.2334	812.256	81.3503	812.256	81.941	812.256	80.9117	812.256	81.6007	812.256	80.3414	812.256	81.1464	812.256	79.5161	812.256	80.4735	812.256	78.3056	812.256	79.4541	812.256	76.6126	812.256	77.9428	812.256	74.5083	812.256	75.7929	812.256	72.7409	812.256	73.057	812.256	72.8684	812.256	71.08	812.256	74.6039	812.256	72.225	812.256	76.3923	812.256	74.6769	812.256	77.6485	812.256	76.614	812.256	78.2998	812.256	77.8163	812.256	78.3591
840.82	82.9494	840.82	82.8716	840.82	82.9141	840.82	82.6922	840.82	82.7802	840.82	82.4465	840.82	82.5822	840.82	82.179	840.82	82.3603	840.82	81.9148	840.82	82.1393	840.82	81.6281	840.82	81.9049	840.82	81.2335	840.82	81.5948	840.82	80.6039	840.82	81.1071	840.82	79.5947	840.82	80.3178	840.82	78.0574	840.82	79.0919	840.82	75.8772	840.82	77.2926	840.82	73.2657	840.82	74.8792	840.82	71.8539	840.82	72.5141	840.82	73.2695	840.82	72.4011	840.82	75.4769	840.82	74.439	840.82	77.1085	840.82	76.4127	840.82	77.998	840.82	77.6651	840.82	78.1809
870.85	83.3341	870.85	83.2225	870.85	83.2683	870.85	82.9651	870.85	83.0305	870.85	82.6246	870.85	82.667	870.85	82.2787	870.85	82.2611	870.85	81.9839	870.85	81.9001	870.85	81.7295	870.85	81.6168	870.85	81.4224	870.85	81.3485	870.85	80.9162	870.85	80.9599	870.85	80.0494	870.85	80.2952	870.85	78.662	870.85	79.2049	870.85	76.6087	870.85	77.5528	870.85	73.9335	870.85	75.2918	870.85	71.8504	870.85	72.963	870.85	72.6985	870.85	72.5378	870.85	74.9536	870.85	74.3217	870.85	76.7168	870.85	76.2218	870.85	77.6944	870.85	77.445	870.85	77.929
901.611	83.3797	901.611	83.2583	901.611	83.3396	901.611	82.9928	901.611	83.1455	901.611	82.627	901.611	82.8305	901.611	82.2296	901.611	82.4524	901.611	81.8686	901.611	82.0795	901.611	81.5604	901.611	81.7513	901.611	81.2288	901.611	81.4338	901.611	80.7192	901.611	81.012	901.611	79.8439	901.611	80.3226	901.611	78.4107	901.611	79.1843	901.611	76.2387	901.611	77.4043	901.611	73.3637	901.611	74.8296	901.611	71.3192	901.611	71.9602	901.611	72.6984	901.611	71.6449	901.611	75.2187	901.611	74.1164	901.611	77.0551	901.611	76.3716	901.611	78.0507	901.611	77.7363	901.611	78.2736
933.105	84.2222	933.105	84.0905	933.105	84.1266	933.105	83.7642	933.105	83.8029	933.105	83.3121	933.105	83.2852	933.105	82.8371	933.105	82.6527	933.105	82.4394	933.105	82.0267	933.105	82.1446	933.105	81.5198	933.105	81.8599	933.105	81.1461	933.105	81.4119	933.105	80.7823	933.105	80.6099	933.105	80.2253	933.105	79.2682	933.105	79.2633	933.105	77.1922	933.105	77.6977	933.105	74.2511	933.105	75.3739	933.105	71.3476	933.105	72.5932	933.105	71.9467	933.105	71.6535	933.105	74.6983	933.105	73.7728	933.105	76.794	933.105	76.0992	933.105	77.9194	933.105	77.5743	933.105	78.1676
966.064	84.1439	966.064	83.9974	966.064	84.0843	966.064	83.6546	966.064	83.832	966.064	83.159	966.064	83.4216	966.064	82.6009	966.064	82.9138	966.064	82.1067	966.064	82.3907	966.064	81.7682	966.064	81.9228	966.064	81.5453	966.064	81.5131	966.064	81.2544	966.064	81.0692	966.064	80.6528	966.064	80.4328	966.064	79.5033	966.064	79.4177	966.064	77.5715	966.064	77.8063	966.064	74.6454	966.064	75.3205	966.064	71.2492	966.064	71.8272	966.064	71.1034	966.064	69.6808	966.064	73.9447	966.064	72.3077	966.064	76.1981	966.064	75.235	966.064	77.3998	966.064	76.9713	966.064	77.6526
999.756	84.2571	999.756	84.0871	999.756	84.1363	999.756	83.6524	999.756	83.7289	999.756	83.0178	999.756	83.0773	999.756	82.3039	999.756	82.2883	999.756	81.6783	999.756	81.5495	999.756	81.2725	999.756	81.0601	999.756	81.0542	999.756	80.8524	999.756	80.8181	999.756	80.7188	999.756	80.3067	999.756	80.3626	999.756	79.2943	999.756	79.5389	999.756	77.5862	999.756	78.0677	999.756	75.053	999.756	75.832	999.756	72.2589	999.756	73.0987	999.756	72.0608	999.756	71.8835	999.756	74.499	999.756	73.7226	999.756	76.6412	999.756	76.0186	999.756	77.8347	999.756	77.5164	999.756	78.1146
1034.91	84.6961	1034.91	84.4776	1034.91	84.6347	1034.91	84.0046	1034.91	84.2825	1034.91	83.3209	1034.91	83.6566	1034.91	82.5127	1034.91	82.8261	1034.91	81.7315	1034.91	81.9329	1034.91	81.1462	1034.91	81.1694	1034.91	80.7867	1034.91	80.6657	1034.91	80.4573	1034.91	80.3548	1034.91	79.8593	1034.91	79.9866	1034.91	78.7197	1034.91	79.2498	1034.91	76.7836	1034.91	77.8214	1034.91	73.7806	1034.91	75.3257	1034.91	70.2319	1034.91	71.5025	1034.91	70.7087	1034.91	69.3696	1034.91	74.1402	1034.91	72.7407	1034.91	76.6122	1034.91	75.8258	1034.91	77.9082	1034.91	77.5574	1034.91	78.2083
1071.53	84.9087	1071.53	84.7041	1071.53	84.8179	1071.53	84.2123	1071.53	84.4322	1071.53	83.4725	1071.53	83.7625	1071.53	82.5981	1071.53	82.859	1071.53	81.8132	1071.53	81.8798	1071.53	81.3688	1071.53	81.132	1071.53	81.2936	1071.53	80.8685	1071.53	81.3105	1071.53	80.9355	1071.53	81.0526	1071.53	80.8895	1071.53	80.2088	1071.53	80.3469	1071.53	78.4733	1071.53	79.0287	1071.53	75.392	1071.53	76.6173	1071.53	70.3313	1071.53	72.6554	1071.53	68.1392	1071.53	68.645	1071.53	72.9493	1071.53	71.6115	1071.53	76.0873	1071.53	75.2179	1071.53	77.5941	1071.53	77.1929	1071.53	77.9264
1109.62	85.1107	1109.62	84.8107	1109.62	85.1596	1109.62	84.254	1109.62	84.9373	1109.62	83.4278	1109.62	84.4025	1109.62	82.3602	1109.62	83.5216	1109.62	81.2176	1109.62	82.3281	1109.62	80.3845	1109.62	81.0148	1109.62	80.1945	1109.62	79.9727	1109.62	80.4199	1109.62	79.4985	1109.62	80.4847	1109.62	79.3628	1109.62	79.9391	1109.62	79.0219	1109.62	78.4613	1109.62	78.0023	1109.62	75.6487	1109.62	75.8642	1109.62	70.9521	1109.62	71.9316	1109.62	68.3886	1109.62	66.7346	1109.62	72.9536	1109.62	70.4082	1109.62	76.1964	1109.62	74.8411	1109.62	77.7634	1109.62	77.1742	1109.62	78.0655
1148.44	85.4231	1148.44	85.2454	1148.44	85.3435	1148.44	84.7774	1148.44	85.0184	1148.44	83.9797	1148.44	84.4417	1148.44	82.8554	1148.44	83.6084	1148.44	81.5594	1148.44	82.559	1148.44	80.5182	1148.44	81.4583	1148.44	80.1825	1148.44	80.6295	1148.44	80.3878	1148.44	80.3138	1148.44	80.5318	1148.44	80.3026	1148.44	80.1589	1148.44	80.0722	1148.44	78.9821	1148.44	79.1251	1148.44	76.6586	1148.44	77.0048	1148.44	72.6332	1148.44	73.0504	1148.44	68.8055	1148.44	67.5188	1148.44	72.6158	1148.44	70.7954	1148.44	76.262	1148.44	75.2937	1148.44	78.0722	1148.44	77.6365	1148.44	78.4882
1189.45	85.1167	1189.45	85.061	1189.45	84.9453	1189.45	84.7295	1189.45	84.5547	1189.45	84.0388	1189.45	83.9219	1189.45	82.8996	1189.45	83.0196	1189.45	81.3011	1189.45	81.8684	1189.45	79.5157	1189.45	80.6182	1189.45	78.3036	1189.45	79.6108	1189.45	78.186	1189.45	79.2079	1189.45	78.5167	1189.45	79.3358	1189.45	78.4666	1189.45	79.447	1189.45	77.5798	1189.45	78.946	1189.45	75.4294	1189.45	77.3095	1189.45	71.2718	1189.45	73.791	1189.45	67.299	1189.45	67.1242	1189.45	72.2213	1189.45	68.9771	1189.45	76.0746	1189.45	74.6054	1189.45	77.9046	1189.45	77.3093	1189.45	78.2826
1231.2	85.0393	1231.2	84.8995	1231.2	84.9616	1231.2	84.5436	1231.2	84.6267	1231.2	83.9198	1231.2	83.9812	1231.2	82.934	1231.2	82.9892	1231.2	81.5186	1231.2	81.6896	1231.2	79.8086	1231.2	80.306	1231.2	78.4321	1231.2	79.3467	1231.2	78.166	1231.2	79.2797	1231.2	78.666	1231.2	79.8299	1231.2	78.9884	1231.2	80.246	1231.2	78.5197	1231.2	79.9566	1231.2	76.7214	1231.2	78.5714	1231.2	72.5488	1231.2	75.5636	1231.2	64.7674	1231.2	69.7966	1231.2	70.8492	1231.2	67.0797	1231.2	75.6326	1231.2	73.2816	1231.2	77.5732	1231.2	76.5313	1231.2	77.8058
1274.41	85.212	1274.41	84.9749	1274.41	85.2414	1274.41	84.5136	1274.41	85.0404	1274.41	83.7873	1274.41	84.5449	1274.41	82.7469	1274.41	83.6789	1274.41	81.3624	1274.41	82.4171	1274.41	79.7117	1274.41	80.8737	1274.41	78.1872	1274.41	79.4271	1274.41	77.463	1274.41	78.7169	1274.41	77.5432	1274.41	78.9539	1274.41	77.5902	1274.41	79.425	1274.41	76.9072	1274.41	79.3079	1274.41	74.9882	1274.41	78.0581	1274.41	70.8699	1274.41	75.0861	1274.41	62.2242	1274.41	69.3736	1274.41	68.4821	1274.41	67.8571	1274.41	74.1071	1274.41	73.4748	1274.41	76.5811	1274.41	76.3248	1274.41	77.2361
1319.82	85.4049	1319.82	85.178	1319.82	85.3111	1319.82	84.6596	1319.82	84.8823	1319.82	83.8388	1319.82	84.1819	1319.82	82.6216	1319.82	83.38	1319.82	80.8321	1319.82	82.6255	1319.82	78.3773	1319.82	81.8567	1319.82	75.8692	1319.82	80.9739	1319.82	75.2306	1319.82	80.1817	1319.82	77.041	1319.82	79.7337	1319.82	79.2152	1319.82	79.406	1319.82	80.1285	1319.82	78.7824	1319.82	79.0955	1319.82	77.4863	1319.82	75.5099	1319.82	74.8029	1319.82	69.5546	1319.82	68.9009	1319.82	72.7817	1319.82	65.5331	1319.82	76.819	1319.82	73.4433	1319.82	78.4582	1319.82	77.0533	1319.82	78.5018
1365.97	83.9683	1365.97	83.7927	1365.97	84.1483	1365.97	83.7901	1365.97	84.1279	1365.97	83.8972	1365.97	83.8046	1365.97	83.78	1365.97	83.1854	1365.97	82.9818	1365.97	82.3165	1365.97	81.1556	1365.97	81.2598	1365.97	78.4374	1365.97	80.2732	1365.97	76.1877	1365.97	79.833	1365.97	76.4389	1365.97	79.9329	1365.97	78.0172	1365.97	79.9408	1365.97	78.6738	1365.97	79.284	1365.97	77.5693	1365.97	77.4705	1365.97	74.1861	1365.97	73.7254	1365.97	66.6057	1365.97	65.722	1365.97	61.6509	1365.97	56.8422	1365.97	70.1731	1365.97	68.8499	1365.97	73.0755	1365.97	72.4786	1365.97	73.6799
1414.31	85.4061	1414.31	85.5129	1414.31	85.2299	1414.31	85.441	1414.31	84.994	1414.31	85.0456	1414.31	84.5809	1414.31	84.1818	1414.31	83.8244	1414.31	82.6956	1414.31	82.6546	1414.31	80.5202	1414.31	81.1824	1414.31	78.0539	1414.31	79.7645	1414.31	76.3307	1414.31	79.2002	1414.31	76.6579	1414.31	79.6405	1414.31	78.603	1414.31	79.743	1414.31	79.8676	1414.31	78.664	1414.31	79.53	1414.31	76.4043	1414.31	77.4424	1414.31	73.2338	1414.31	73.2304	1414.31	68.9628	1414.31	66.6695	1414.31	58.7346	1414.31	68.6061	1414.31	63.0258	1414.31	72.3062	1414.31	70.7238	1414.31	72.9816
1464.11	86.919	1464.11	86.8733	1464.11	86.681	1464.11	86.4583	1464.11	86.2024	1464.11	85.5868	1464.11	85.474	1464.11	84.248	1464.11	84.4577	1464.11	82.6119	1464.11	83.134	1464.11	81.0704	1464.11	81.5253	1464.11	79.9813	1464.11	79.7955	1464.11	79.381	1464.11	78.9486	1464.11	79.5295	1464.11	79.634	1464.11	80.3409	1464.11	80.0457	1464.11	80.634	1464.11	79.1767	1464.11	79.5684	1464.11	77.3759	1464.11	76.8172	1464.11	75.1836	1464.11	72.1654	1464.11	72.1169	1464.11	68.8328	1464.11	66.6374	1464.11	71.8515	1464.11	66.4395	1464.11	73.9651	1464.11	71.722	1464.11	73.9752
1515.38	87.7349	1515.38	87.7454	1515.38	87.3033	1515.38	87.2519	1515.38	86.6014	1515.38	86.2042	1515.38	85.862	1515.38	84.635	1515.38	85.2745	1515.38	82.8199	1515.38	84.7297	1515.38	81.2785	1515.38	83.7178	1515.38	80.2389	1515.38	81.6588	1515.38	79.6789	1515.38	78.8687	1515.38	79.9733	1515.38	77.5855	1515.38	80.7017	1515.38	77.5502	1515.38	80.6054	1515.38	77.3387	1515.38	78.9006	1515.38	77.3907	1515.38	75.2265	1515.38	76.9511	1515.38	70.7518	1515.38	74.5571	1515.38	71.4528	1515.38	69.1573	1515.38	73.956	1515.38	69.7594	1515.38	75.2719	1515.38	73.9076	1515.38	75.3971
1568.85	88.3871	1568.85	88.4357	1568.85	87.7331	1568.85	87.8375	1568.85	86.7143	1568.85	86.6238	1568.85	85.845	1568.85	84.8761	1568.85	85.5906	1568.85	82.8858	1568.85	85.6859	1568.85	81.2571	1568.85	85.1999	1568.85	80.3347	1568.85	83.1757	1568.85	79.9051	1568.85	79.3539	1568.85	80.341	1568.85	76.6454	1568.85	81.5153	1568.85	76.6634	1568.85	81.605	1568.85	77.8552	1568.85	79.2501	1568.85	79.4462	1568.85	73.2314	1568.85	79.2054	1568.85	66.3893	1568.85	75.945	1568.85	71.4244	1568.85	67.8312	1568.85	73.8952	1568.85	70.7451	1568.85	75.225	1568.85	74.9803	1568.85	75.8571
1624.51	90.0268	1624.51	90.0895	1624.51	89.3664	1624.51	89.5966	1624.51	88.242	1624.51	88.5957	1624.51	87.0915	1624.51	87.0683	1624.51	86.5001	1624.51	85.0529	1624.51	86.5396	1624.51	82.8743	1624.51	86.3982	1624.51	81.0661	1624.51	84.9218	1624.51	79.6943	1624.51	81.1935	1624.51	79.3578	1624.51	76.3703	1624.51	81.2298	1624.51	76.4311	1624.51	82.5213	1624.51	79.1209	1624.51	81.0752	1624.51	80.9575	1624.51	75.4117	1624.51	80.4959	1624.51	67.1251	1624.51	76.9109	1624.51	75.0966	1624.51	66.6828	1624.51	78.0907	1624.51	71.3706	1624.51	79.0237	1624.51	76.9046	1624.51	78.753
1681.64	89.8311	1681.64	89.6425	1681.64	89.4132	1681.64	88.8035	1681.64	88.6228	1681.64	87.4185	1681.64	87.8301	1681.64	85.6926	1681.64	87.3245	1681.64	84.1848	1681.64	86.9789	1681.64	83.7041	1681.64	86.1209	1681.64	83.7003	1681.64	83.8644	1681.64	82.9167	1681.64	79.7493	1681.64	81.5031	1681.64	75.4323	1681.64	81.4845	1681.64	75.7846	1681.64	81.3936	1681.64	79.3453	1681.64	77.9451	1681.64	81.2536	1681.64	66.0897	1681.64	80.7466	1681.64	69.924	1681.64	77.5812	1681.64	72.6584	1681.64	72.1823	1681.64	71.5018	1681.64	73.4388	1681.64	73.0359	1681.64	75.633	1681.64	75.2921
1740.97	89.3985	1740.97	88.811	1740.97	89.1863	1740.97	87.4778	1740.97	88.417	1740.97	85.8692	1740.97	87.5129	1740.97	84.7563	1740.97	86.7933	1740.97	84.455	1740.97	86.1822	1740.97	84.2508	1740.97	85.2605	1740.97	83.3458	1740.97	83.316	1740.97	81.5419	1740.97	79.7946	1740.97	79.3835	1740.97	76.0982	1740.97	78.6573	1740.97	76.4179	1740.97	78.5444	1740.97	79.5126	1740.97	76.7833	1740.97	80.5902	1740.97	74.7497	1740.97	78.6634	1740.97	74.5001	1740.97	72.542	1740.97	72.7742	1740.97	60.5763	1740.97	69.691	1740.97	71.9925	1740.97	72.2206	1740.97	74.5806	1740.97	74.5353
1802.49	88.0899	1802.49	87.3433	1802.49	87.8741	1802.49	85.7277	1802.49	87.0168	1802.49	83.8127	1802.49	86.1428	1802.49	82.4734	1802.49	85.6694	1802.49	82.1233	1802.49	85.4178	1802.49	82.4228	1802.49	84.8178	1802.49	82.5849	1802.49	82.9938	1802.49	81.529	1802.49	79.3373	1802.49	79.411	1802.49	76.0521	1802.49	78.8728	1802.49	75.8177	1802.49	78.1586	1802.49	79.5591	1802.49	74.8639	1802.49	81.6647	1802.49	76.7303	1802.49	80.2785	1802.49	78.8906	1802.49	75.6182	1802.49	76.5934	1802.49	68.3227	1802.49	66.8403	1802.49	67.3896	1802.49	67.4794	1802.49	70.9407	1802.49	72.2306
1866.21	87.1544	1866.21	86.2804	1866.21	87.3355	1866.21	84.6062	1866.21	87.2484	1866.21	82.6062	1866.21	87.0787	1866.21	81.3267	1866.21	86.4769	1866.21	81.5812	1866.21	85.1069	1866.21	82.8922	1866.21	82.9998	1866.21	83.8713	1866.21	80.2653	1866.21	83.1478	1866.21	79.2877	1866.21	79.5494	1866.21	80.5173	1866.21	74.0439	1866.21	79.7868	1866.21	72.064	1866.21	80.5707	1866.21	75.8697	1866.21	82.1454	1866.21	81.4274	1866.21	80.9702	1866.21	82.835	1866.21	77.4871	1866.21	80.502	1866.21	73.7404	1866.21	73.377	1866.21	69.794	1866.21	62.6367	1866.21	66.6426	1866.21	68.9025
1932.13	86.039	1932.13	85.3432	1932.13	86.0659	1932.13	84.1717	1932.13	85.6405	1932.13	82.8921	1932.13	85.1396	1932.13	81.8533	1932.13	84.5871	1932.13	81.775	1932.13	83.4753	1932.13	82.8717	1932.13	81.3422	1932.13	83.8394	1932.13	78.8124	1932.13	83.3249	1932.13	77.9294	1932.13	80.3554	1932.13	78.7787	1932.13	74.6232	1932.13	78.3592	1932.13	71.6912	1932.13	78.2607	1932.13	77.1263	1932.13	79.3061	1932.13	81.5596	1932.13	78.8903	1932.13	82.2844	1932.13	77.6838	1932.13	79.5475	1932.13	75.9809	1932.13	74.3388	1932.13	70.7363	1932.13	73.4752	1932.13	57.8389	1932.13	72.2563
2000.24	84.8045	2000.24	84.3401	2000.24	84.8893	2000.24	83.2989	2000.24	84.9665	2000.24	81.9643	2000.24	85.0304	2000.24	81.2366	2000.24	84.63	2000.24	81.8126	2000.24	83.1861	2000.24	82.9483	2000.24	80.1984	2000.24	83.2981	2000.24	77.0362	2000.24	81.7247	2000.24	77.7365	2000.24	77.1273	2000.24	79.2032	2000.24	69.1352	2000.24	79.076	2000.24	71.1132	2000.24	78.6507	2000.24	78.338	2000.24	78.3983	2000.24	81.7845	2000.24	76.9935	2000.24	81.4619	2000.24	75.1816	2000.24	77.3682	2000.24	73.6685	2000.24	70.4942	2000.24	70.4715	2000.24	70.8672	2000.24	64.565	2000.24	69.2191
2070.56	85.3234	2070.56	84.4508	2070.56	85.7811	2070.56	83.5232	2070.56	85.7071	2070.56	82.9107	2070.56	85.0748	2070.56	82.5726	2070.56	83.8319	2070.56	82.2689	2070.56	82.0074	2070.56	81.9183	2070.56	80.0264	2070.56	81.1227	2070.56	79.3043	2070.56	78.7413	2070.56	79.9644	2070.56	74.0454	2070.56	80.0695	2070.56	71.2458	2070.56	78.5755	2070.56	74.0707	2070.56	76.7318	2070.56	78.794	2070.56	75.7026	2070.56	80.7916	2070.56	74.9374	2070.56	79.7973	2070.56	75.7574	2070.56	76.0462	2070.56	76.5165	2070.56	70.748	2070.56	75.234	2070.56	67.1138	2070.56	70.4825	2070.56	62.5826
2143.8	85.2553	2143.8	84.9291	2143.8	85.2763	2143.8	84.4684	2143.8	84.8308	2143.8	83.8044	2143.8	83.9243	2143.8	82.9017	2143.8	82.6118	2143.8	82.1179	2143.8	81.0103	2143.8	81.6554	2143.8	79.398	2143.8	80.9046	2143.8	78.3045	2143.8	79.0648	2143.8	78.2483	2143.8	75.725	2143.8	78.1916	2143.8	72.0468	2143.8	76.719	2143.8	71.5004	2143.8	75.075	2143.8	76.2484	2143.8	75.4476	2143.8	78.8232	2143.8	76.278	2143.8	77.2712	2143.8	76.7284	2143.8	71.8992	2143.8	75.9541	2143.8	69.4016	2143.8	73.5294	2143.8	70.4902	2143.8	69.7412	2143.8	69.0451
2219.24	83.9525	2219.24	83.7064	2219.24	83.9255	2219.24	83.292	2219.24	83.5367	2219.24	82.7077	2219.24	82.7926	2219.24	81.8019	2219.24	81.7887	2219.24	80.5191	2219.24	80.6031	2219.24	79.1939	2219.24	79.3119	2219.24	78.1746	2219.24	78.1965	2219.24	77.374	2219.24	77.1607	2219.24	76.6026	2219.24	75.7666	2219.24	75.3087	2219.24	73.9745	2219.24	73.1296	2219.24	72.3066	2219.24	73.2675	2219.24	72.9792	2219.24	75.4389	2219.24	74.9173	2219.24	75.4434	2219.24	74.9182	2219.24	72.2214	2219.24	72.0241	2219.24	66.2719	2219.24	66.1254	2219.24	67.6046	2219.24	66.054	2219.24	68.7883
2297.61	84.5503	2297.61	84.2665	2297.61	84.528	2297.61	83.7105	2297.61	84.1932	2297.61	82.9076	2297.61	83.5723	2297.61	81.8167	2297.61	82.6548	2297.61	80.4817	2297.61	81.3676	2297.61	79.1255	2297.61	79.7963	2297.61	77.7734	2297.61	78.3673	2297.61	76.4523	2297.61	77.3263	2297.61	75.4098	2297.61	76.2914	2297.61	74.2805	2297.61	74.7745	2297.61	72.6377	2297.61	72.7785	2297.61	72.3037	2297.61	72.481	2297.61	73.9346	2297.61	74.0187	2297.61	74.0877	2297.61	74.3708	2297.61	71.2475	2297.61	72.6112	2297.61	66.1563	2297.61	68.5676	2297.61	67.6661	2297.61	66.5516	2297.61	68.6273
2378.17	85.6678	2378.17	85.4282	2378.17	85.5895	2378.17	84.8776	2378.17	85.1975	2378.17	84.0682	2378.17	84.5133	2378.17	83.0339	2378.17	83.5759	2378.17	81.7512	2378.17	82.3641	2378.17	80.3187	2378.17	80.9372	2378.17	78.9449	2378.17	79.5803	2378.17	77.4823	2378.17	78.3646	2378.17	75.8656	2378.17	76.9935	2378.17	74.49	2378.17	75.3593	2378.17	73.2291	2378.17	73.7091	2378.17	72.7865	2378.17	73.2286	2378.17	73.8721	2378.17	74.3162	2378.17	74.0067	2378.17	74.6563	2378.17	71.3391	2378.17	72.8541	2378.17	66.8127	2378.17	69.1232	2378.17	69.1813	2378.17	69.1434	2378.17	70.8209
2462.4	85.072	2462.4	84.9702	2462.4	84.9636	2462.4	84.6402	2462.4	84.654	2462.4	84.0244	2462.4	84.1123	2462.4	83.0518	2462.4	83.2439	2462.4	81.7848	2462.4	81.9316	2462.4	80.4331	2462.4	80.2662	2462.4	79.2173	2462.4	78.8179	2462.4	78.1077	2462.4	77.8509	2462.4	76.7523	2462.4	76.6763	2462.4	75.0054	2462.4	74.943	2462.4	73.1862	2462.4	73.0569	2462.4	72.8493	2462.4	72.5898	2462.4	74.1635	2462.4	73.7811	2462.4	74.2921	2462.4	74.0085	2462.4	71.5682	2462.4	71.8263	2462.4	67.0045	2462.4	66.6886	2462.4	69.9038	2462.4	68.2205	2462.4	71.1976
2548.83	85.4255	2548.83	85.2783	2548.83	85.2564	2548.83	84.8129	2548.83	84.8354	2548.83	84.0518	2548.83	84.2354	2548.83	82.9577	2548.83	83.4921	2548.83	81.5519	2548.83	82.4803	2548.83	79.9975	2548.83	81.0226	2548.83	78.5609	2548.83	79.2938	2548.83	77.2946	2548.83	77.9315	2548.83	76.0128	2548.83	76.9227	2548.83	74.7421	2548.83	75.3782	2548.83	72.968	2548.83	73.0886	2548.83	71.8401	2548.83	71.6655	2548.83	73.2944	2548.83	73.211	2548.83	73.6085	2548.83	74.2166	2548.83	70.4464	2548.83	72.3464	2548.83	62.8875	2548.83	66.3074	2548.83	67.117	2548.83	64.5375	2548.83	68.7743
2638.92	86.3224	2638.92	86.1397	2638.92	86.1477	2638.92	85.6792	2638.92	85.6685	2638.92	85.009	2638.92	84.9976	2638.92	84.0467	2638.92	84.1607	2638.92	82.7398	2638.92	83.0716	2638.92	81.1392	2638.92	81.6606	2638.92	79.4652	2638.92	80.0266	2638.92	78.1006	2638.92	78.4567	2638.92	76.5918	2638.92	77.1554	2638.92	74.7597	2638.92	76.0246	2638.92	73.1674	2638.92	74.2644	2638.92	71.7098	2638.92	72.2608	2638.92	72.7275	2638.92	73.0138	2638.92	73.6571	2638.92	74.1544	2638.92	71.3737	2638.92	72.8522	2638.92	64.446	2638.92	67.2314	2638.92	65.4194	2638.92	63.1952	2638.92	67.5236
2731.93	86.358	2731.93	86.0563	2731.93	86.2429	2731.93	85.4343	2731.93	85.8005	2731.93	84.7157	2731.93	85.0961	2731.93	83.8959	2731.93	84.1675	2731.93	82.8466	2731.93	83.1028	2731.93	81.5508	2731.93	81.9128	2731.93	80.0265	2731.93	80.4027	2731.93	78.4528	2731.93	78.6082	2731.93	77.1496	2731.93	77.0326	2731.93	75.9905	2731.93	76.0152	2731.93	74.2736	2731.93	74.7967	2731.93	72.4008	2731.93	72.353	2731.93	73.6095	2731.93	72.5677	2731.93	74.7127	2731.93	74.5811	2731.93	72.5962	2731.93	73.822	2731.93	65.4569	2731.93	68.7577	2731.93	64.3242	2731.93	61.3057	2731.93	66.6065
2828.61	86.6017	2828.61	86.3313	2828.61	86.5132	2828.61	85.6938	2828.61	86.1289	2828.61	84.805	2828.61	85.4556	2828.61	83.7576	2828.61	84.5597	2828.61	82.4769	2828.61	83.4815	2828.61	81.0014	2828.61	82.0972	2828.61	79.4851	2828.61	80.5131	2828.61	77.816	2828.61	78.9313	2828.61	76.1642	2828.61	77.2891	2828.61	75.3186	2828.61	75.971	2828.61	74.5222	2828.61	75.201	2828.61	72.483	2828.61	73.4592	2828.61	73.0139	2828.61	72.1532	2828.61	75.0247	2828.61	74.4438	2828.61	73.874	2828.61	74.7917	2828.61	68.0786	2828.61	71.1909	2828.61	63.455	2828.61	63.465	2828.61	64.8214
2928.22	86.9599	2928.22	86.6735	2928.22	86.8687	2928.22	86.0957	2928.22	86.3713	2928.22	85.3184	2928.22	85.5886	2928.22	84.3263	2928.22	84.7017	2928.22	82.9825	2928.22	83.624	2928.22	81.2482	2928.22	82.1831	2928.22	79.5687	2928.22	80.5358	2928.22	78.1271	2928.22	78.97	2928.22	76.2604	2928.22	77.3135	2928.22	74.9838	2928.22	75.6503	2928.22	74.4889	2928.22	74.8874	2928.22	72.0169	2928.22	73.438	2928.22	71.6101	2928.22	71.8499	2928.22	74.0888	2928.22	73.9188	2928.22	73.4117	2928.22	74.4813	2928.22	68.5293	2928.22	71.2266	2928.22	64.1392	2928.22	64.9196	2928.22	65.1535
3031.49	86.948	3031.49	86.6285	3031.49	86.9341	3031.49	86.1403	3031.49	86.4952	3031.49	85.4728	3031.49	85.771	3031.49	84.5447	3031.49	84.9063	3031.49	83.406	3031.49	83.7935	3031.49	81.8614	3031.49	82.271	3031.49	80.0395	3031.49	80.515	3031.49	78.9379	3031.49	79.051	3031.49	77.4824	3031.49	77.4501	3031.49	75.3943	3031.49	75.3142	3031.49	75.1173	3031.49	74.5928	3031.49	73.2063	3031.49	73.8142	3031.49	71.1614	3031.49	71.415	3031.49	74.2943	3031.49	73.4631	3031.49	74.2657	3031.49	75.0379	3031.49	70.0554	3031.49	72.4207	3031.49	66.0011	3031.49	66.4157	3031.49	66.434
3138.43	86.7327	3138.43	86.511	3138.43	86.657	3138.43	85.9583	3138.43	86.2715	3138.43	85.1256	3138.43	85.6663	3138.43	84.2032	3138.43	84.8847	3138.43	83.2171	3138.43	83.9644	3138.43	81.7943	3138.43	82.8483	3138.43	79.6731	3138.43	81.2118	3138.43	78.1845	3138.43	79.6223	3138.43	77.1477	3138.43	78.3319	3138.43	75.1484	3138.43	76.2506	3138.43	75.2372	3138.43	75.1045	3138.43	74.1767	3138.43	74.6482	3138.43	70.8252	3138.43	71.2823	3138.43	73.118	3138.43	71.4746	3138.43	73.767	3138.43	74.2589	3138.43	69.6318	3138.43	72.5413	3138.43	64.7832	3138.43	67.221	3138.43	66.4464
3249.02	86.882	3249.02	86.775	3249.02	86.6843	3249.02	86.3561	3249.02	86.3444	3249.02	85.6579	3249.02	85.801	3249.02	84.7035	3249.02	84.943	3249.02	83.7745	3249.02	83.93	3249.02	82.6905	3249.02	82.7082	3249.02	80.8515	3249.02	80.8646	3249.02	78.9948	3249.02	78.7506	3249.02	77.6194	3249.02	77.6271	3249.02	75.049	3249.02	75.9487	3249.02	74.1451	3249.02	74.2946	3249.02	74.4788	3249.02	74.8605	3249.02	71.3443	3249.02	72.6535	3249.02	72.0296	3249.02	70.4391	3249.02	73.6845	3249.02	73.0826	3249.02	70.9761	3249.02	71.7309	3249.02	67.2126	3249.02	67.0468	3249.02	67.3868
3363.28	87.0593	3363.28	86.9483	3363.28	87.0941	3363.28	86.5774	3363.28	87.0346	3363.28	85.8073	3363.28	86.512	3363.28	84.5914	3363.28	85.5422	3363.28	83.2991	3363.28	84.5878	3363.28	82.2592	3363.28	83.6222	3363.28	80.7252	3363.28	81.9499	3363.28	78.8103	3363.28	79.7836	3363.28	77.4308	3363.28	78.2842	3363.28	75.1995	3363.28	76.7453	3363.28	74.6909	3363.28	74.395	3363.28	75.1931	3363.28	75.2401	3363.28	72.2943	3363.28	74.8405	3363.28	72.0462	3363.28	72.3859	3363.28	73.0785	3363.28	73.9698	3363.28	69.9734	3363.28	72.5206	3363.28	66.401	3363.28	67.0856	3363.28	66.7549
3481.93	86.9075	3481.93	86.9006	3481.93	87.0233	3481.93	86.8617	3481.93	87.0092	3481.93	86.3571	3481.93	86.5932	3481.93	85.2683	3481.93	85.6816	3481.93	83.8496	3481.93	84.5142	3481.93	82.4856	3481.93	83.3534	3481.93	80.6717	3481.93	81.7799	3481.93	78.5499	3481.93	79.6257	3481.93	77.4901	3481.93	78.1889	3481.93	75.1327	3481.93	76.5566	3481.93	72.9338	3481.93	74.1595	3481.93	74.1762	3481.93	74.1984	3481.93	72.7955	3481.93	74.3262	3481.93	72.3434	3481.93	72.2118	3481.93	73.7877	3481.93	74.0554	3481.93	69.7837	3481.93	72.7906	3481.93	64.0917	3481.93	66.5048	3481.93	65.281
3604.98	87.0404	3604.98	86.8919	3604.98	87.0589	3604.98	86.664	3604.98	86.9003	3604.98	86.1851	3604.98	86.4647	3604.98	85.0768	3604.98	85.7471	3604.98	83.4661	3604.98	84.7689	3604.98	82.0636	3604.98	83.4098	3604.98	80.3122	3604.98	81.9503	3604.98	77.9838	3604.98	79.5816	3604.98	77.5353	3604.98	77.8384	3604.98	75.7345	3604.98	77.1521	3604.98	73.0965	3604.98	74.6545	3604.98	74.3758	3604.98	74.0017	3604.98	72.7299	3604.98	73.6864	3604.98	72.785	3604.98	71.0091	3604.98	74.9249	3604.98	72.9489	3604.98	71.5196	3604.98	72.8682	3604.98	63.626	3604.98	66.4301	3604.98	63.9771
3732.42	87.8027	3732.42	87.6708	3732.42	87.7815	3732.42	87.4479	3732.42	87.6285	3732.42	87.0717	3732.42	87.2393	3732.42	86.1238	3732.42	86.3257	3732.42	84.6339	3732.42	84.9	3732.42	83.0853	3732.42	83.283	3732.42	81.4326	3732.42	81.7515	3732.42	78.906	3732.42	79.6952	3732.42	77.0014	3732.42	77.3352	3732.42	75.9892	3732.42	76.8709	3732.42	72.8867	3732.42	74.7725	3732.42	74.8479	3732.42	74.6172	3732.42	73.9258	3732.42	75.4368	3732.42	71.5674	3732.42	72.2603	3732.42	73.976	3732.42	73.1994	3732.42	72.6406	3732.42	73.6405	3732.42	65.8294	3732.42	69.0854	3732.42	65.3268
3863.53	87.5012	3863.53	87.3896	3863.53	87.4733	3863.53	87.1004	3863.53	87.4367	3863.53	86.6038	3863.53	87.2175	3863.53	85.6694	3863.53	86.6749	3863.53	84.1386	3863.53	85.275	3863.53	82.3762	3863.53	83.3673	3863.53	80.7593	3863.53	81.825	3863.53	78.6454	3863.53	79.8794	3863.53	76.6159	3863.53	77.2477	3863.53	75.6996	3863.53	75.5687	3863.53	73.6203	3863.53	73.5205	3863.53	74.8462	3863.53	72.7058	3863.53	73.9849	3863.53	75.0394	3863.53	71.1703	3863.53	72.3886	3863.53	73.5416	3863.53	71.33	3863.53	71.7552	3863.53	73.1802	3863.53	65.2591	3863.53	68.2509	3863.53	63.0193
3999.76	87.7227	3999.76	87.7651	3999.76	87.7243	3999.76	87.6746	3999.76	87.5311	3999.76	87.1513	3999.76	87.14	3999.76	86.2549	3999.76	86.5668	3999.76	84.7151	3999.76	85.451	3999.76	82.3438	3999.76	83.5334	3999.76	80.4835	3999.76	81.6976	3999.76	78.5213	3999.76	79.752	3999.76	76.3743	3999.76	76.971	3999.76	75.1046	3999.76	76.077	3999.76	71.2212	3999.76	74.4502	3999.76	72.997	3999.76	72.3404	3999.76	74.2629	3999.76	74.6985	3999.76	70.4985	3999.76	73.3794	3999.76	72.5139	3999.76	72.2682	3999.76	71.3218	3999.76	72.1701	3999.76	66.744	3999.76	68.4399	3999.76	65.8872
4141.11	87.3866	4141.11	87.4158	4141.11	87.4095	4141.11	87.2215	4141.11	87.3736	4141.11	86.6923	4141.11	87.1499	4141.11	85.8402	4141.11	86.6241	4141.11	84.5992	4141.11	85.4349	4141.11	82.5657	4141.11	83.7559	4141.11	80.5278	4141.11	81.8642	4141.11	78.6949	4141.11	80.2969	4141.11	76.2298	4141.11	77.6557	4141.11	75.502	4141.11	75.8957	4141.11	73.2948	4141.11	75.0879	4141.11	71.4173	4141.11	71.567	4141.11	74.3985	4141.11	74.3406	4141.11	71.3185	4141.11	72.9169	4141.11	72.4296	4141.11	72.4168	4141.11	71.198	4141.11	73.5197	4141.11	63.0479	4141.11	68.7411	4141.11	66.0953
4286.87	86.9843	4286.87	87.0633	4286.87	87.0695	4286.87	87.3008	4286.87	87.1692	4286.87	86.9115	4286.87	86.972	4286.87	85.7545	4286.87	86.2639	4286.87	84.4905	4286.87	85.1997	4286.87	82.6645	4286.87	83.8751	4286.87	80.5201	4286.87	81.6529	4286.87	78.3781	4286.87	79.2586	4286.87	75.5026	4286.87	77.151	4286.87	74.3947	4286.87	74.3179	4286.87	74.8328	4286.87	73.4997	4286.87	71.5198	4286.87	71.5723	4286.87	74.2443	4286.87	73.0888	4286.87	72.7866	4286.87	74.1867	4286.87	72.0884	4286.87	69.9565	4286.87	71.5823	4286.87	72.7091	4286.87	63.7593	4286.87	66.9915	4286.87	61.901
4438.48	87.0386	4438.48	87.3364	4438.48	87.2261	4438.48	87.416	4438.48	87.4271	4438.48	86.9879	4438.48	87.2403	4438.48	85.8796	4438.48	86.668	4438.48	84.3462	4438.48	85.7218	4438.48	82.5556	4438.48	83.9648	4438.48	80.3449	4438.48	81.4257	4438.48	78.2794	4438.48	79.5201	4438.48	76.2392	4438.48	77.4483	4438.48	73.293	4438.48	75.1134	4438.48	72.8067	4438.48	73.7312	4438.48	71.632	4438.48	71.8531	4438.48	72.6383	4438.48	71.7256	4438.48	72.5754	4438.48	73.8488	4438.48	73.1109	4438.48	72.8474	4438.48	72.5054	4438.48	72.3496	4438.48	66.2856	4438.48	68.2791	4438.48	64.1125
4594.48	86.8365	4594.48	86.9103	4594.48	87.0275	4594.48	87.0258	4594.48	87.1985	4594.48	86.7491	4594.48	87.199	4594.48	85.6554	4594.48	86.3736	4594.48	83.8736	4594.48	84.63	4594.48	81.9565	4594.48	83.3382	4594.48	80.2753	4594.48	81.1017	4594.48	78.2617	4594.48	78.8002	4594.48	75.306	4594.48	76.7729	4594.48	73.3292	4594.48	74.8189	4594.48	72.0271	4594.48	73.3423	4594.48	69.7718	4594.48	72.0001	4594.48	71.8599	4594.48	70.9231	4594.48	71.0536	4594.48	72.8977	4594.48	71.7224	4594.48	70.8446	4594.48	69.5467	4594.48	72.6102	4594.48	57.8762	4594.48	68.082	4594.48	60.8315
4757.08	87.045	4757.08	87.0853	4757.08	87.0347	4757.08	87.1578	4757.08	87.1136	4757.08	86.7201	4757.08	87.0985	4757.08	85.6919	4757.08	86.4743	4757.08	84.0487	4757.08	84.9576	4757.08	82.3892	4757.08	83.3538	4757.08	80.0348	4757.08	81.5773	4757.08	77.6094	4757.08	78.8624	4757.08	75.7745	4757.08	77.0974	4757.08	73.0501	4757.08	74.6919	4757.08	72.6074	4757.08	72.8708	4757.08	70.6731	4757.08	72.1935	4757.08	71.3845	4757.08	70.5805	4757.08	70.7567	4757.08	72.9676	4757.08	72.6155	4757.08	70.8392	4757.08	70.9558	4757.08	73.5419	4757.08	62.9614	4757.08	66.2916	4757.08	65.5456
4924.8	86.8288	4924.8	86.8495	4924.8	87.0008	4924.8	86.9486	4924.8	87.1674	4924.8	86.5687	4924.8	87.1605	4924.8	85.727	4924.8	86.7677	4924.8	84.1039	4924.8	85.223	4924.8	81.9234	4924.8	83.4037	4924.8	79.9284	4924.8	81.3761	4924.8	77.7479	4924.8	78.8704	4924.8	76.0325	4924.8	76.7145	4924.8	73.0977	4924.8	74.8753	4924.8	70.9678	4924.8	73.0664	4924.8	69.6426	4924.8	71.8969	4924.8	70.6353	4924.8	69.7313	4924.8	71.6096	4924.8	72.1073	4924.8	70.357	4924.8	70.7923	4924.8	70.6068	4924.8	72.1243	4924.8	59.818	4924.8	68.4639	4924.8	59.9695
5098.39	87.2807	5098.39	87.2914	5098.39	87.2143	5098.39	87.2324	5098.39	87.3778	5098.39	86.8069	5098.39	87.2262	5098.39	86.095	5098.39	86.565	5098.39	84.2653	5098.39	85.4891	5098.39	82.4378	5098.39	83.5101	5098.39	80.0512	5098.39	81.3738	5098.39	77.3736	5098.39	78.9799	5098.39	74.9303	5098.39	77.273	5098.39	73.0127	5098.39	74.5859	5098.39	71.0156	5098.39	72.7283	5098.39	71.0572	5098.39	71.6216	5098.39	69.0942	5098.39	69.8139	5098.39	72.2892	5098.39	71.7554	5098.39	69.5321	5098.39	70.75	5098.39	71.0538	5098.39	70.5729	5098.39	57.5336	5098.39	68.3607	5098.39	62.0485
5277.83	87.4272	5277.83	87.6282	5277.83	87.4848	5277.83	87.507	5277.83	87.8151	5277.83	86.6443	5277.83	87.4639	5277.83	85.5943	5277.83	86.6997	5277.83	84.2409	5277.83	85.6186	5277.83	82.3643	5277.83	83.8372	5277.83	80.1229	5277.83	81.8378	5277.83	77.8174	5277.83	78.9379	5277.83	76.0753	5277.83	76.8141	5277.83	74.1601	5277.83	74.9512	5277.83	71.6522	5277.83	73.2777	5277.83	70.9651	5277.83	72.6523	5277.83	68.5853	5277.83	71.2574	5277.83	70.3859	5277.83	71.0012	5277.83	69.4957	5277.83	70.0915	5277.83	68.2162	5277.83	70.9718	5277.83	61.9734	5277.83	64.6834	5277.83	64.0622
5463.87	87.9759	5463.87	87.9733	5463.87	88.037	5463.87	87.9603	5463.87	88.0466	5463.87	87.2997	5463.87	87.7085	5463.87	86.1839	5463.87	86.654	5463.87	84.6251	5463.87	85.68	5463.87	82.8284	5463.87	83.8295	5463.87	80.545	5463.87	81.4996	5463.87	77.7786	5463.87	79.1569	5463.87	75.5798	5463.87	77.0327	5463.87	73.6668	5463.87	74.8898	5463.87	71.9881	5463.87	72.5853	5463.87	72.0724	5463.87	71.8244	5463.87	68.6753	5463.87	71.8876	5463.87	71.3973	5463.87	70.5453	5463.87	67.331	5463.87	71.1729	5463.87	69.5529	5463.87	68.5821	5463.87	47.5053	5463.87	66.2826	5463.87	62.7205
5656.49	88.4099	5656.49	88.3882	5656.49	88.3249	5656.49	88.1394	5656.49	88.1681	5656.49	87.6007	5656.49	87.7412	5656.49	86.3267	5656.49	86.7933	5656.49	84.8296	5656.49	85.7455	5656.49	82.8084	5656.49	83.9778	5656.49	80.5275	5656.49	81.7962	5656.49	77.6889	5656.49	79.23	5656.49	75.1449	5656.49	76.6045	5656.49	73.0692	5656.49	74.2774	5656.49	71.2268	5656.49	72.9561	5656.49	70.4315	5656.49	71.3187	5656.49	68.6304	5656.49	71.7114	5656.49	70.849	5656.49	70.6742	5656.49	69.7235	5656.49	70.4303	5656.49	67.7922	5656.49	67.4592	5656.49	57.1833	5656.49	62.2386	5656.49	60.8942
5856.45	88.7556	5856.45	88.5149	5856.45	88.5775	5856.45	88.0181	5856.45	88.1062	5856.45	87.533	5856.45	87.6374	5856.45	86.4306	5856.45	86.8445	5856.45	84.7688	5856.45	85.5414	5856.45	82.6399	5856.45	83.7044	5856.45	80.0576	5856.45	81.4257	5856.45	77.3343	5856.45	79.1409	5856.45	74.8082	5856.45	76.6459	5856.45	72.8834	5856.45	74.2334	5856.45	71.9267	5856.45	72.375	5856.45	70.734	5856.45	71.1649	5856.45	69.5415	5856.45	71.6454	5856.45	70.9374	5856.45	69.7422	5856.45	69.8149	5856.45	72.4755	5856.45	68.3569	5856.45	68.5492	5856.45	58.038	5856.45	64.1884	5856.45	63.8852
6062.99	89.4907	6062.99	89.0788	6062.99	89.2447	6062.99	88.23	6062.99	88.4517	6062.99	87.6388	6062.99	87.6747	6062.99	86.3298	6062.99	86.7728	6062.99	84.6179	6062.99	85.6484	6062.99	82.5342	6062.99	83.9116	6062.99	80.118	6062.99	81.3983	6062.99	77.1828	6062.99	79.1419	6062.99	74.8351	6062.99	76.4855	6062.99	72.311	6062.99	73.7201	6062.99	71.736	6062.99	71.8264	6062.99	70.4137	6062.99	71.1099	6062.99	70.1985	6062.99	71.4577	6062.99	68.8262	6062.99	69.7402	6062.99	69.0714	6062.99	71.8876	6062.99	69.0682	6062.99	69.3249	6062.99	54.1948	6062.99	65.0311	6062.99	63.7342
6276.86	89.8928	6276.86	89.259	6276.86	89.6246	6276.86	88.1821	6276.86	88.7411	6276.86	87.2377	6276.86	87.6112	6276.86	86.066	6276.86	86.827	6276.86	84.3938	6276.86	85.4691	6276.86	82.0727	6276.86	83.0236	6276.86	79.7814	6276.86	80.5561	6276.86	76.7587	6276.86	77.7675	6276.86	74.4916	6276.86	75.4986	6276.86	72.7236	6276.86	73.374	6276.86	69.6206	6276.86	71.4315	6276.86	70.3221	6276.86	69.8836	6276.86	69.6101	6276.86	71.383	6276.86	70.0833	6276.86	69.3318	6276.86	68.8673	6276.86	71.0954	6276.86	66.4854	6276.86	68.7252	6276.86	49.151	6276.86	65.5513	6276.86	60.8996
6498.05	90.154	6498.05	89.4836	6498.05	90.0023	6498.05	88.3024	6498.05	89.0686	6498.05	86.9815	6498.05	87.6839	6498.05	85.5984	6498.05	86.5845	6498.05	83.8522	6498.05	85.3333	6498.05	81.2765	6498.05	82.9771	6498.05	78.9344	6498.05	80.6055	6498.05	75.9597	6498.05	78.0798	6498.05	73.1649	6498.05	75.1988	6498.05	71.4803	6498.05	73.1428	6498.05	69.5716	6498.05	70.4224	6498.05	68.8766	6498.05	69.4287	6498.05	69.88	6498.05	69.795	6498.05	69.257	6498.05	69.1679	6498.05	69.0031	6498.05	71.884	6498.05	65.8018	6498.05	67.8198	6498.05	48.7794	6498.05	63.3369	6498.05	63.9205
6727.29	90.2126	6727.29	89.4184	6727.29	90.0181	6727.29	88.1708	6727.29	89.1657	6727.29	86.681	6727.29	87.8697	6727.29	85.2483	6727.29	86.6516	6727.29	83.4046	6727.29	85.0684	6727.29	81.3905	6727.29	82.8346	6727.29	78.578	6727.29	80.4205	6727.29	75.9888	6727.29	77.3085	6727.29	73.1133	6727.29	74.9894	6727.29	71.3177	6727.29	72.3887	6727.29	68.891	6727.29	69.7008	6727.29	67.6779	6727.29	68.7328	6727.29	69.3805	6727.29	68.8711	6727.29	68.2362	6727.29	68.4958	6727.29	70.6698	6727.29	70.9007	6727.29	65.5308	6727.29	67.5755	6727.29	57.9561	6727.29	63.7972	6727.29	64.195
6964.6	89.7218	6964.6	88.8254	6964.6	89.5771	6964.6	87.5638	6964.6	88.6874	6964.6	86.5596	6964.6	87.8415	6964.6	85.2282	6964.6	86.8593	6964.6	83.5324	6964.6	85.5412	6964.6	81.5098	6964.6	83.4378	6964.6	78.8189	6964.6	81.0351	6964.6	75.875	6964.6	78.0579	6964.6	73.4539	6964.6	75.3824	6964.6	71.2836	6964.6	72.379	6964.6	69.3132	6964.6	70.5103	6964.6	68.5238	6964.6	68.8475	6964.6	68.1823	6964.6	67.7795	6964.6	68.1258	6964.6	68.4852	6964.6	70.6923	6964.6	69.9648	6964.6	64.228	6964.6	66.7262	6964.6	48.4609	6964.6	65.1917	6964.6	63.6312
7209.96	88.5574	7209.96	87.7536	7209.96	88.4787	7209.96	86.7033	7209.96	87.7037	7209.96	85.9292	7209.96	86.8691	7209.96	84.8297	7209.96	86.2632	7209.96	83.1532	7209.96	85.1756	7209.96	81.2298	7209.96	83.4273	7209.96	78.5602	7209.96	81.0075	7209.96	75.7952	7209.96	77.9301	7209.96	73.3809	7209.96	75.6719	7209.96	70.9747	7209.96	72.7364	7209.96	69.3998	7209.96	71.3994	7209.96	68.6236	7209.96	69.1114	7209.96	67.9566	7209.96	69.9358	7209.96	68.5412	7209.96	68.7272	7209.96	69.5176	7209.96	68.8351	7209.96	64.1501	7209.96	65.564	7209.96	57.7601	7209.96	66.7752	7209.96	63.392
7464.11	89.0195	7464.11	88.1757	7464.11	88.9421	7464.11	86.6231	7464.11	88.1515	7464.11	85.4296	7464.11	86.9061	7464.11	84.3877	7464.11	85.9601	7464.11	82.6578	7464.11	84.3359	7464.11	80.3292	7464.11	82.2628	7464.11	78.1257	7464.11	80.1903	7464.11	75.83	7464.11	77.6906	7464.11	73.3903	7464.11	75.0144	7464.11	71.6258	7464.11	72.3157	7464.11	68.428	7464.11	70.3491	7464.11	67.7241	7464.11	68.3188	7464.11	67.7297	7464.11	67.8612	7464.11	65.9307	7464.11	68.1897	7464.11	68.9512	7464.11	69.9926	7464.11	63.9457	7464.11	64.1962	7464.11	54.4478	7464.11	64.2973	7464.11	60.0728
7727.78	89.2467	7727.78	88.5146	7727.78	89.1579	7727.78	87.3053	7727.78	88.4101	7727.78	85.8489	7727.78	87.2385	7727.78	85.117	7727.78	85.9334	7727.78	83.3901	7727.78	84.6681	7727.78	81.4486	7727.78	82.9214	7727.78	79.2323	7727.78	80.3062	7727.78	76.6304	7727.78	77.4741	7727.78	73.3509	7727.78	74.951	7727.78	71.0677	7727.78	71.7833	7727.78	69.3831	7727.78	70.455	7727.78	66.914	7727.78	68.8669	7727.78	67.938	7727.78	68.4482	7727.78	67.6747	7727.78	68.8246	7727.78	69.1294	7727.78	68.2688	7727.78	61.9935	7727.78	64.3255	7727.78	56.8077	7727.78	61.4837	7727.78	62.5757
8000.24	88.7095	8000.24	88.2313	8000.24	88.6973	8000.24	87.3362	8000.24	88.2283	8000.24	86.4286	8000.24	87.2692	8000.24	85.1334	8000.24	86.1394	8000.24	83.8502	8000.24	84.7333	8000.24	81.8844	8000.24	83.2564	8000.24	79.889	8000.24	80.5459	8000.24	76.8987	8000.24	78.481	8000.24	74.4595	8000.24	74.6975	8000.24	72.3657	8000.24	72.3263	8000.24	70.5848	8000.24	70.0267	8000.24	69.4287	8000.24	68.253	8000.24	68.807	8000.24	69.4433	8000.24	68.1559	8000.24	70.2941	8000.24	68.5166	8000.24	69.2277	8000.24	61.189	8000.24	64.4423	8000.24	50.5647	8000.24	61.1593	8000.24	63.6743
8282.23	89.2405	8282.23	88.6711	8282.23	89.1144	8282.23	87.0424	8282.23	88.0889	8282.23	85.3998	8282.23	86.5245	8282.23	84.0108	8282.23	85.248	8282.23	82.339	8282.23	83.7933	8282.23	80.6809	8282.23	82.1222	8282.23	78.5651	8282.23	79.5082	8282.23	76.0261	8282.23	76.8487	8282.23	72.9866	8282.23	73.8737	8282.23	70.27	8282.23	71.6932	8282.23	68.8966	8282.23	68.7463	8282.23	66.5264	8282.23	67.6228	8282.23	67.9113	8282.23	68.8808	8282.23	68.5453	8282.23	68.0319	8282.23	68.0218	8282.23	70.306	8282.23	60.0795	8282.23	63.5266	8282.23	57.6401	8282.23	61.7447	8282.23	65.1995
8574.46	90.4286	8574.46	89.5742	8574.46	90.0288	8574.46	87.5799	8574.46	88.602	8574.46	85.1054	8574.46	86.5295	8574.46	83.2017	8574.46	84.3127	8574.46	81.2011	8574.46	82.0717	8574.46	79.4594	8574.46	79.7392	8574.46	76.5345	8574.46	77.5106	8574.46	74.2437	8574.46	74.7423	8574.46	71.5267	8574.46	72.0075	8574.46	68.9553	8574.46	70.0143	8574.46	67.3044	8574.46	67.0178	8574.46	65.98	8574.46	65.4591	8574.46	67.3341	8574.46	65.7441	8574.46	66.2705	8574.46	67.6474	8574.46	67.1618	8574.46	69.4916	8574.46	61.1655	8574.46	64.2966	8574.46	56.2419	8574.46	60.0909	8574.46	63.658
8876.22	90.6098	8876.22	89.7503	8876.22	90.2768	8876.22	87.7074	8876.22	88.8643	8876.22	85.3297	8876.22	86.6443	8876.22	83.3631	8876.22	83.9347	8876.22	81.3527	8876.22	81.2538	8876.22	79.0716	8876.22	79.6081	8876.22	76.6116	8876.22	77.2371	8876.22	74.1791	8876.22	74.6749	8876.22	70.6819	8876.22	71.4181	8876.22	68.6037	8876.22	68.8867	8876.22	66.9952	8876.22	65.3589	8876.22	66.129	8876.22	63.9838	8876.22	66.516	8876.22	64.6021	8876.22	66.7005	8876.22	66.475	8876.22	66.2983	8876.22	68.3944	8876.22	61.3129	8876.22	65.1287	8876.22	57.6567	8876.22	53.329	8876.22	64.5601
9189.7	90.2075	9189.7	89.4463	9189.7	90.2008	9189.7	87.4721	9189.7	88.9592	9189.7	85.0286	9189.7	86.8523	9189.7	82.6825	9189.7	84.1174	9189.7	80.784	9189.7	81.7999	9189.7	78.951	9189.7	80.5098	9189.7	76.781	9189.7	77.6669	9189.7	74.5424	9189.7	75.1494	9189.7	71.4623	9189.7	70.9884	9189.7	68.9558	9189.7	67.9126	9189.7	67.3437	9189.7	63.2251	9189.7	65.3426	9189.7	63.9646	9189.7	65.834	9189.7	64.7362	9189.7	66.8826	9189.7	65.4633	9189.7	66.9039	9189.7	67.7101	9189.7	63.1467	9189.7	66.3643	9189.7	58.4943	9189.7	55.6466	9189.7	66.5228
9513.43	89.6194	9513.43	89.2174	9513.43	89.6643	9513.43	87.5025	9513.43	88.6875	9513.43	84.9144	9513.43	86.7999	9513.43	82.2951	9513.43	84.4863	9513.43	80.3684	9513.43	82.3824	9513.43	78.1374	9513.43	80.953	9513.43	75.7206	9513.43	77.8611	9513.43	73.166	9513.43	75.207	9513.43	69.804	9513.43	72.594	9513.43	66.3196	9513.43	68.8212	9513.43	64.1234	9513.43	65.064	9513.43	64.7077	9513.43	64.0368	9513.43	65.9887	9513.43	62.8009	9513.43	64.4671	9513.43	66.8317	9513.43	65.4612	9513.43	68.8804	9513.43	58.1953	9513.43	65.0782	9513.43	61.9923	9513.43	59.4096	9513.43	66.854
9848.88	88.1684	9848.88	87.969	9848.88	88.2517	9848.88	86.727	9848.88	87.7914	9848.88	84.5011	9848.88	86.4673	9848.88	82.1025	9848.88	84.3319	9848.88	80.2896	9848.88	82.5331	9848.88	78.7038	9848.88	81.0104	9848.88	76.5773	9848.88	78.4752	9848.88	73.5361	9848.88	74.6281	9848.88	70.0923	9848.88	72.5214	9848.88	65.9631	9848.88	68.9489	9848.88	62.6531	9848.88	65.4067	9848.88	61.0194	9848.88	63.8281	9848.88	63.5089	9848.88	55.3161	9848.88	65.2532	9848.88	66.0119	9848.88	69.0378	9848.88	68.1255	9848.88	56.4764	9848.88	65.228	9848.88	64.2216	9848.88	59.828	9848.88	65.5017
10196.8	87.2658	10196.8	87.2139	10196.8	87.3807	10196.8	86.4159	10196.8	87.0181	10196.8	84.008	10196.8	85.8618	10196.8	82.1763	10196.8	83.5749	10196.8	81.0861	10196.8	82.2927	10196.8	80.1806	10196.8	80.5387	10196.8	77.7599	10196.8	78.1006	10196.8	74.4743	10196.8	74.9911	10196.8	71.4514	10196.8	72.1999	10196.8	67.5209	10196.8	68.3942	10196.8	65.7514	10196.8	64.5165	10196.8	63.4646	10196.8	61.2657	10196.8	65.7468	10196.8	61.3882	10196.8	66.6619	10196.8	65.2958	10196.8	69.5128	10196.8	64.7135	10196.8	57.1402	10196.8	65.878	10196.8	59.7966	10196.8	54.9098	10196.8	61.9645
10556.4	87.0061	10556.4	87.2725	10556.4	86.9306	10556.4	86.4041	10556.4	86.6663	10556.4	84.3891	10556.4	85.0495	10556.4	82.6698	10556.4	82.7821	10556.4	81.571	10556.4	81.6006	10556.4	80.1266	10556.4	80.2057	10556.4	77.3469	10556.4	78.1043	10556.4	74.0078	10556.4	74.8664	10556.4	71.5395	10556.4	72.0815	10556.4	67.5227	10556.4	68.0176	10556.4	64.5473	10556.4	64.0606	10556.4	63.6293	10556.4	63.4128	10556.4	65.0312	10556.4	60.4351	10556.4	67.0176	10556.4	63.0343	10556.4	67.7	10556.4	63.0368	10556.4	58.6144	10556.4	63.1945	10556.4	49.7944	10556.4	44.381	10556.4	63.0644
10928.5	87.4585	10928.5	87.191	10928.5	86.934	10928.5	86.0066	10928.5	86.4231	10928.5	84.353	10928.5	84.6648	10928.5	82.5807	10928.5	82.5362	10928.5	81.6052	10928.5	81.173	10928.5	79.9367	10928.5	79.6109	10928.5	77.6134	10928.5	77.9174	10928.5	74.533	10928.5	74.2381	10928.5	71.1833	10928.5	71.8611	10928.5	66.9415	10928.5	68.9931	10928.5	63.9589	10928.5	65.0242	10928.5	63.7492	10928.5	62.6205	10928.5	64.4444	10928.5	60.4105	10928.5	67.0564	10928.5	63.6026	10928.5	68.118	10928.5	64.714	10928.5	60.2387	10928.5	63.0114	10928.5	55.4446	10928.5	40.2297	10928.5	63.5163
11313.7	88.0517	11313.7	87.5306	11313.7	87.4893	11313.7	86.4733	11313.7	86.8292	11313.7	84.5617	11313.7	84.7522	11313.7	82.0171	11313.7	82.1471	11313.7	81.1297	11313.7	80.7121	11313.7	79.6001	11313.7	79.6288	11313.7	77.501	11313.7	78.2506	11313.7	74.8943	11313.7	75.2054	11313.7	70.593	11313.7	72.4608	11313.7	67.2187	11313.7	68.8898	11313.7	63.4908	11313.7	66.2115	11313.7	62.9632	11313.7	64.0044	11313.7	64.2222	11313.7	63.5905	11313.7	65.0061	11313.7	65.202	11313.7	66.2433	11313.7	65.4037	11313.7	57.2865	11313.7	63.5566	11313.7	55.7198	11313.7	43.7163	11313.7	63.211
11712.9	87.8592	11712.9	87.3617	11712.9	87.5654	11712.9	86.1566	11712.9	87.1233	11712.9	84.014	11712.9	84.9896	11712.9	81.2126	11712.9	82.3326	11712.9	80.6493	11712.9	80.8381	11712.9	79.3937	11712.9	80.3662	11712.9	77.7724	11712.9	78.8483	11712.9	74.2235	11712.9	76.0139	11712.9	69.7547	11712.9	73.1634	11712.9	66.7159	11712.9	69.3199	11712.9	63.607	11712.9	65.7899	11712.9	61.1485	11712.9	63.5683	11712.9	64.3586	11712.9	64.7301	11712.9	63.8977	11712.9	66.7323	11712.9	66.1764	11712.9	65.9555	11712.9	56.2468	11712.9	61.7492	11712.9	54.4088	11712.9	37.1451	11712.9	63.1601
12126	85.6183	12126	84.8008	12126	85.6966	12126	84.3776	12126	85.6508	12126	83.3744	12126	84.2907	12126	82.0863	12126	82.5022	12126	81.6898	12126	81.3752	12126	80.084	12126	80.4812	12126	78.3629	12126	78.3162	12126	74.1448	12126	75.1018	12126	70.5154	12126	72.2712	12126	66.1266	12126	67.5927	12126	61.5307	12126	62.2863	12126	59.2987	12126	63.0282	12126	65.2192	12126	62.6139	12126	66.2205	12126	65.3259	12126	66.1291	12126	65.6659	12126	50.7571	12126	63.2245	12126	54.1837	12126	55.0808	12126	62.3203
12553.7	86.7691	12553.7	85.005	12553.7	86.2453	12553.7	84.3412	12553.7	85.2521	12553.7	83.829	12553.7	84.3015	12553.7	82.5623	12553.7	82.848	12553.7	82.1846	12553.7	81.6153	12553.7	80.6198	12553.7	80.4981	12553.7	78.548	12553.7	78.5159	12553.7	74.4017	12553.7	75.5594	12553.7	71.4535	12553.7	72.3489	12553.7	66.6771	12553.7	67.2573	12553.7	63.9829	12553.7	63.0007	12553.7	61.157	12553.7	63.152	12553.7	65.3102	12553.7	62.2519	12553.7	65.3111	12553.7	64.6042	12553.7	65.4376	12553.7	65.4177	12553.7	56.6068	12553.7	62.1092	12553.7	60.4054	12553.7	58.1203	12553.7	62.9044
12996.1	86.3934	12996.1	85.1904	12996.1	85.9039	12996.1	84.3128	12996.1	84.8423	12996.1	83.579	12996.1	83.7337	12996.1	81.8635	12996.1	81.6228	12996.1	81.4291	12996.1	80.8013	12996.1	80.0244	12996.1	80.3793	12996.1	77.8718	12996.1	78.9952	12996.1	75.0492	12996.1	75.6203	12996.1	71.5275	12996.1	72.5534	12996.1	67.9316	12996.1	68.3819	12996.1	64.5173	12996.1	65.4597	12996.1	61.0356	12996.1	61.9016	12996.1	64.1669	12996.1	63.8905	12996.1	65.1543	12996.1	65.5829	12996.1	64.9718	12996.1	66.2994	12996.1	56.334	12996.1	61.9868	12996.1	61.189	12996.1	58.9355	12996.1	63.2375
13454.6	85.428	13454.6	84.5266	13454.6	84.9502	13454.6	83.4356	13454.6	83.9407	13454.6	82.6288	13454.6	82.7489	13454.6	81.2352	13454.6	80.4148	13454.6	80.5477	13454.6	79.6248	13454.6	78.9451	13454.6	79.5049	13454.6	77.0308	13454.6	77.9768	13454.6	74.6979	13454.6	74.5821	13454.6	70.8271	13454.6	71.8613	13454.6	67.5181	13454.6	68.2671	13454.6	62.7746	13454.6	64.0161	13454.6	59.7912	13454.6	59.007	13454.6	62.8026	13454.6	63.4366	13454.6	63.9717	13454.6	66.3723	13454.6	63.5932	13454.6	66.4887	13454.6	55.2011	13454.6	61.3243	13454.6	63.033	13454.6	59.69	13454.6	61.993
13928.5	84.2432	13928.5	82.6073	13928.5	83.4963	13928.5	82.7178	13928.5	82.4854	13928.5	83.1123	13928.5	82.4626	13928.5	82.1199	13928.5	81.3576	13928.5	80.653	13928.5	80.0955	13928.5	79.3798	13928.5	78.8893	13928.5	77.5296	13928.5	77.0104	13928.5	73.3177	13928.5	74.2407	13928.5	69.546	13928.5	71.0224	13928.5	65.0258	13928.5	67.0609	13928.5	61.368	13928.5	61.5732	13928.5	60.0094	13928.5	61.3851	13928.5	59.7836	13928.5	61.0124	13928.5	61.4807	13928.5	65.5805	13928.5	63.2046	13928.5	64.7675	13928.5	53.679	13928.5	58.891	13928.5	62.4807	13928.5	58.8787	13928.5	60.9043
14419.9	82.9753	14419.9	83.5377	14419.9	82.8638	14419.9	84.3479	14419.9	83.1285	14419.9	84.5033	14419.9	83.2783	14419.9	83.1239	14419.9	82.1967	14419.9	81.4839	14419.9	80.3166	14419.9	80.0033	14419.9	78.8183	14419.9	78.1239	14419.9	77.1276	14419.9	73.7778	14419.9	74.2971	14419.9	70.3201	14419.9	69.79	14419.9	65.1999	14419.9	64.9688	14419.9	63.9627	14419.9	62.5206	14419.9	59.6076	14419.9	60.4493	14419.9	59.6779	14419.9	58.1052	14419.9	61.5986	14419.9	62.9435	14419.9	63.3624	14419.9	63.6033	14419.9	53.7575	14419.9	59.889	14419.9	60.0744	14419.9	57.7093	14419.9	59.4923
14928.2	85.738	14928.2	86.0632	14928.2	85.2707	14928.2	86.4134	14928.2	85.3806	14928.2	86.3975	14928.2	85.0513	14928.2	84.7044	14928.2	83.345	14928.2	82.1954	14928.2	81.0233	14928.2	79.442	14928.2	78.7346	14928.2	76.6064	14928.2	76.1058	14928.2	73.5427	14928.2	72.3602	14928.2	69.1656	14928.2	67.9541	14928.2	65.9738	14928.2	64.0611	14928.2	61.6832	14928.2	60.0064	14928.2	55.2323	14928.2	55.6123	14928.2	55.9368	14928.2	56.6044	14928.2	61.4941	14928.2	58.0102	14928.2	61.792	14928.2	61.4108	14928.2	54.4719	14928.2	59.9986	14928.2	61.0277	14928.2	57.0506	14928.2	58.6696
15454.8	87.5436	15454.8	87.8934	15454.8	87.0421	15454.8	87.8988	15454.8	86.5595	15454.8	87.2183	15454.8	86.1447	15454.8	85.0741	15454.8	84.0114	15454.8	82.2123	15454.8	81.5931	15454.8	79.3315	15454.8	78.9782	15454.8	76.7873	15454.8	76.1467	15454.8	73.0491	15454.8	72.7152	15454.8	68.7521	15454.8	69.3425	15454.8	65.3959	15454.8	64.4061	15454.8	60.7622	15454.8	60.1742	15454.8	55.7549	15454.8	57.3948	15454.8	57.083	15454.8	55.3451	15454.8	60.7969	15454.8	57.1485	15454.8	60.6563	15454.8	59.0037	15454.8	52.5167	15454.8	59.7163	15454.8	56.8518	15454.8	51.0625	15454.8	56.0393
15999.8	87.7424	15999.8	88.1186	15999.8	87.327	15999.8	88.1724	15999.8	86.8264	15999.8	87.2025	15999.8	86.1796	15999.8	85.0986	15999.8	84.1762	15999.8	82.1688	15999.8	81.5688	15999.8	79.2614	15999.8	78.9732	15999.8	77.0091	15999.8	76.468	15999.8	72.1179	15999.8	73.6408	15999.8	67.9688	15999.8	69.569	15999.8	64.3626	15999.8	63.4767	15999.8	59.0952	15999.8	59.1532	15999.8	56.5083	15999.8	57.3234	15999.8	58.4206	15999.8	55.4876	15999.8	58.6958	15999.8	59.0476	15999.8	57.9776	15999.8	56.5718	15999.8	51.62	15999.8	56.8743	15999.8	54.1455	15999.8	31.58	15999.8	46.1679
16564.5	87.5693	16564.5	87.6449	16564.5	87.1195	16564.5	87.7651	16564.5	86.6409	16564.5	86.4975	16564.5	85.9574	16564.5	84.4247	16564.5	84.2799	16564.5	80.7989	16564.5	81.4696	16564.5	77.4639	16564.5	78.2691	16564.5	74.8103	16564.5	76.0629	16564.5	69.8857	16564.5	72.9029	16564.5	65.0462	16564.5	68.5831	16564.5	61.2361	16564.5	62.5353	16564.5	56.1586	16564.5	59.0482	16564.5	52.5112	16564.5	57.4508	16564.5	57.2174	16564.5	56.6821	16564.5	56.6251	16564.5	57.6532	16564.5	53.7408	16564.5	54.9051	16564.5	49.5667	16564.5	56.0115	16564.5	54.6004	16564.5	35.4452	16564.5	38.0199
17148.2	87.6081	17148.2	87.7572	17148.2	87.1382	17148.2	86.9333	17148.2	86.3897	17148.2	85.4291	17148.2	85.0537	17148.2	82.5908	17148.2	82.9333	17148.2	78.1776	17148.2	79.5883	17148.2	74.3881	17148.2	76.3314	17148.2	70.6707	17148.2	73.8849	17148.2	66.2549	17148.2	69.9824	17148.2	59.7953	17148.2	65.7327	17148.2	57.7196	17148.2	59.9135	17148.2	49.6872	17148.2	57.0092	17148.2	42.5976	17148.2	54.1403	17148.2	53.0143	17148.2	56.9753	17148.2	52.5625	17148.2	52.9748	17148.2	51.0847	17148.2	51.3643	17148.2	46.684	17148.2	53.263	17148.2	49.7968	17148.2	42.7708	17148.2	44.3476
17753.2	88.2582	17753.2	87.8353	17753.2	87.4707	17753.2	86.1469	17753.2	85.8867	17753.2	83.2608	17753.2	83.6179	17753.2	79.5203	17753.2	80.2576	17753.2	74.1109	17753.2	76.5994	17753.2	69.0781	17753.2	72.6915	17753.2	64.3693	17753.2	70.2973	17753.2	59.3759	17753.2	66.1301	17753.2	50.0606	17753.2	62.836	17753.2	49.2201	17753.2	54.9925	17753.2	31.5355	17753.2	50.011	17753.2	39.7532	17753.2	52.047	17753.2	42.6197	17753.2	55.2094	17753.2	37.6157	17753.2	51.4494	17753.2	44.9246	17753.2	51.0736	17753.2	38.9681	17753.2	50.5984	17753.2	45.3855	17753.2	40.8179	17753.2	37.3678
18379.4	88.0567	18379.4	87.5127	18379.4	87.439	18379.4	85.4944	18379.4	85.6396	18379.4	82.0207	18379.4	83.3906	18379.4	76.2103	18379.4	80.0466	18379.4	68.0426	18379.4	75.5244	18379.4	58.5603	18379.4	70.5202	18379.4	47.0851	18379.4	66.8986	18379.4	56.1934	18379.4	62.9217	18379.4	53.803	18379.4	54.2361	18379.4	52.13	18379.4	51.9529	18379.4	46.1187	18379.4	48.8724	18379.4	41.7581	18379.4	45.9438	18379.4	51.1841	18379.4	57.7813	18379.4	50.5606	18379.4	39.8176	18379.4	51.7403	18379.4	43.1115	18379.4	46.3772	18379.4	47.0975	18379.4	37.4086	18379.4	44.0541	18379.4	39.4881
19027.6	87.0045	19027.6	86.571	19027.6	86.3821	19027.6	84.4948	19027.6	84.9016	19027.6	80.9678	19027.6	82.9405	19027.6	74.8766	19027.6	79.7121	19027.6	66.9736	19027.6	75.867	19027.6	57.2083	19027.6	71.6693	19027.6	49.1116	19027.6	67.7518	19027.6	52.3527	19027.6	62.9968	19027.6	52.9744	19027.6	57.8143	19027.6	48.4394	19027.6	54.2508	19027.6	45.5088	19027.6	51.2983	19027.6	40.2301	19027.6	51.9885	19027.6	54.174	19027.6	55.9945	19027.6	51.4955	19027.6	50.2723	19027.6	47.8041	19027.6	33.0097	19027.6	49.4913	19027.6	51.9271	19027.6	43.502	19027.6	36.4972	19027.6	40.1108
19698.5	85.209	19698.5	84.3775	19698.5	84.7822	19698.5	81.7239	19698.5	82.8568	19698.5	77.4582	19698.5	80.5795	19698.5	70.2696	19698.5	77.005	19698.5	59.7928	19698.5	73.3844	19698.5	51.7389	19698.5	68.7437	19698.5	55.8343	19698.5	64.2591	19698.5	55.0372	19698.5	60.0149	19698.5	51.8295	19698.5	55.343	19698.5	47.7506	19698.5	50.736	19698.5	47.3058	19698.5	49.9692	19698.5	35.2669	19698.5	48.066	19698.5	48.0098	19698.5	49.1259	19698.5	49.5632	19698.5	46.5825	19698.5	46.7945	19698.5	39.7247	19698.5	44.995	19698.5	48.4836	19698.5	43.0009	19698.5	41.0809	19698.5	43.9609
19999.5	84.5436	19999.5	83.5548	19999.5	83.9233	19999.5	80.5343	19999.5	81.8751	19999.5	75.2928	19999.5	79.2679	19999.5	67.5574	19999.5	75.5038	19999.5	56.9487	19999.5	71.5715	19999.5	55.7293	19999.5	66.868	19999.5	57.8415	19999.5	61.714	19999.5	57.5303	19999.5	58.6096	19999.5	53.9896	19999.5	53.6467	19999.5	49.0703	19999.5	50.7777	19999.5	44.6791	19999.5	46.5607	19999.5	45.8769	19999.5	46.219	19999.5	48.952	19999.5	49.5388	19999.5	49.2837	19999.5	42.4918	19999.5	50.8502	19999.5	46.1591	19999.5	49.9711	19999.5	47.3357	19999.5	46.0017	19999.5	38.792	19999.5	47.7208
