"SPL Horizontal"
"On-Axis"		"10°"		"-10°"		"20°"		"-20°"		"30°"		"-30°"		"40°"		"-40°"		"50°"		"-50°"		"60°"		"-60°"		"70°"		"-70°"		"80°"		"-80°"		"90°"		"-90°"		"100°"		"-100°"		"110°"		"-110°"		"120°"		"-120°"		"130°"		"-130°"		"140°"		"-140°"		"150°"		"-150°"		"160°"		"-160°"		"170°"		"-170°"		"180°"
"Frequency / Hz"	"Sound Pressure Level / dB (re 20 µPa/V)  [2.83  V @ 1. m]"	"Frequency / Hz"	"Sound Pressure Level / dB (re 20 µPa/V)  [2.83  V @ 1. m]"	"Frequency / Hz"	"Sound Pressure Level / dB (re 20 µPa/V)  [2.83  V @ 1. m]"	"Frequency / Hz"	"Sound Pressure Level / dB (re 20 µPa/V)  [2.83  V @ 1. m]"	"Frequency / Hz"	"Sound Pressure Level / dB (re 20 µPa/V)  [2.83  V @ 1. m]"	"Frequency / Hz"	"Sound Pressure Level / dB (re 20 µPa/V)  [2.83  V @ 1. m]"	"Frequency / Hz"	"Sound Pressure Level / dB (re 20 µPa/V)  [2.83  V @ 1. m]"	"Frequency / Hz"	"Sound Pressure Level / dB (re 20 µPa/V)  [2.83  V @ 1. m]"	"Frequency / Hz"	"Sound Pressure Level / dB (re 20 µPa/V)  [2.83  V @ 1. m]"	"Frequency / Hz"	"Sound Pressure Level / dB (re 20 µPa/V)  [2.83  V @ 1. m]"	"Frequency / Hz"	"Sound Pressure Level / dB (re 20 µPa/V)  [2.83  V @ 1. m]"	"Frequency / Hz"	"Sound Pressure Level / dB (re 20 µPa/V)  [2.83  V @ 1. m]"	"Frequency / Hz"	"Sound Pressure Level / dB (re 20 µPa/V)  [2.83  V @ 1. m]"	"Frequency / Hz"	"Sound Pressure Level / dB (re 20 µPa/V)  [2.83  V @ 1. m]"	"Frequency / Hz"	"Sound Pressure Level / dB (re 20 µPa/V)  [2.83  V @ 1. m]"	"Frequency / Hz"	"Sound Pressure Level / dB (re 20 µPa/V)  [2.83  V @ 1. m]"	"Frequency / Hz"	"Sound Pressure Level / dB (re 20 µPa/V)  [2.83  V @ 1. m]"	"Frequency / Hz"	"Sound Pressure Level / dB (re 20 µPa/V)  [2.83  V @ 1. m]"	"Frequency / Hz"	"Sound Pressure Level / dB (re 20 µPa/V)  [2.83  V @ 1. m]"	"Frequency / Hz"	"Sound Pressure Level / dB (re 20 µPa/V)  [2.83  V @ 1. m]"	"Frequency / Hz"	"Sound Pressure Level / dB (re 20 µPa/V)  [2.83  V @ 1. m]"	"Frequency / Hz"	"Sound Pressure Level / dB (re 20 µPa/V)  [2.83  V @ 1. m]"	"Frequency / Hz"	"Sound Pressure Level / dB (re 20 µPa/V)  [2.83  V @ 1. m]"	"Frequency / Hz"	"Sound Pressure Level / dB (re 20 µPa/V)  [2.83  V @ 1. m]"	"Frequency / Hz"	"Sound Pressure Level / dB (re 20 µPa/V)  [2.83  V @ 1. m]"	"Frequency / Hz"	"Sound Pressure Level / dB (re 20 µPa/V)  [2.83  V @ 1. m]"	"Frequency / Hz"	"Sound Pressure Level / dB (re 20 µPa/V)  [2.83  V @ 1. m]"	"Frequency / Hz"	"Sound Pressure Level / dB (re 20 µPa/V)  [2.83  V @ 1. m]"	"Frequency / Hz"	"Sound Pressure Level / dB (re 20 µPa/V)  [2.83  V @ 1. m]"	"Frequency / Hz"	"Sound Pressure Level / dB (re 20 µPa/V)  [2.83  V @ 1. m]"	"Frequency / Hz"	"Sound Pressure Level / dB (re 20 µPa/V)  [2.83  V @ 1. m]"	"Frequency / Hz"	"Sound Pressure Level / dB (re 20 µPa/V)  [2.83  V @ 1. m]"	"Frequency / Hz"	"Sound Pressure Level / dB (re 20 µPa/V)  [2.83  V @ 1. m]"	"Frequency / Hz"	"Sound Pressure Level / dB (re 20 µPa/V)  [2.83  V @ 1. m]"	"Frequency / Hz"	"Sound Pressure Level / dB (re 20 µPa/V)  [2.83  V @ 1. m]"	"Frequency / Hz"	"Sound Pressure Level / dB (re 20 µPa/V)  [2.83  V @ 1. m]"
20.5078	53.6293	20.5078	52.9253	20.5078	54.1855	20.5078	52.0475	20.5078	54.6079	20.5078	50.9583	20.5078	54.8999	20.5078	49.614	20.5078	55.0573	20.5078	47.9893	20.5078	55.072	20.5078	46.1687	20.5078	54.9364	20.5078	44.6232	20.5078	54.6478	20.5078	44.3814	20.5078	54.2162	20.5078	45.7547	20.5078	53.674	20.5078	47.7569	20.5078	53.0903	20.5078	49.6629	20.5078	52.5819	20.5078	51.2693	20.5078	52.2962	20.5078	52.556	20.5078	52.3424	20.5078	53.5393	20.5078	52.7108	20.5078	54.2348	20.5078	53.2749	20.5078	54.6537	20.5078	53.8742	20.5078	54.8059	20.5078	54.3789	20.5078	54.7055
21.9727	35.026	21.9727	36.572	21.9727	35.751	21.9727	39.4545	21.9727	37.7128	21.9727	42.4153	21.9727	39.9865	21.9727	45.0626	21.9727	42.3126	21.9727	47.365	21.9727	44.5977	21.9727	49.3667	21.9727	46.7704	21.9727	51.1177	21.9727	48.7822	21.9727	52.6586	21.9727	50.6109	21.9727	54.0199	21.9727	52.253	21.9727	55.2219	21.9727	53.7141	21.9727	56.2761	21.9727	55.0023	21.9727	57.1871	21.9727	56.1245	21.9727	57.9538	21.9727	57.085	21.9727	58.5725	21.9727	57.8856	21.9727	59.0389	21.9727	58.5269	21.9727	59.3495	21.9727	59.009	21.9727	59.5023	21.9727	59.3321	21.9727	59.4965
23.4375	57.8657	23.4375	57.79	23.4375	57.9446	23.4375	57.7255	23.4375	58.0263	23.4375	57.688	23.4375	58.1177	23.4375	57.6998	23.4375	58.2308	23.4375	57.7863	23.4375	58.3804	23.4375	57.9696	23.4375	58.5805	23.4375	58.261	23.4375	58.841	23.4375	58.6557	23.4375	59.1646	23.4375	59.1332	23.4375	59.5462	23.4375	59.6619	23.4375	59.9726	23.4375	60.2072	23.4375	60.4243	23.4375	60.7371	23.4375	60.8776	23.4375	61.2244	23.4375	61.308	23.4375	61.6478	23.4375	61.6923	23.4375	61.9911	23.4375	62.0113	23.4375	62.2429	23.4375	62.25	23.4375	62.3961	23.4375	62.3977	23.4375	62.4476
24.9023	55.7964	24.9023	55.653	24.9023	55.9353	24.9023	55.522	24.9023	56.0654	24.9023	55.4342	24.9023	56.1919	24.9023	55.4334	24.9023	56.328	24.9023	55.5672	24.9023	56.4927	24.9023	55.8713	24.9023	56.7088	24.9023	56.3515	24.9023	56.9973	24.9023	56.9793	24.9023	57.3726	24.9023	57.7028	24.9023	57.8362	24.9023	58.4646	24.9023	58.3746	24.9023	59.2139	24.9023	58.9611	24.9023	59.9112	24.9023	59.5619	24.9023	60.5268	24.9023	60.1417	24.9023	61.0392	24.9023	60.6691	24.9023	61.4333	24.9023	61.1189	24.9023	61.6998	24.9023	61.4722	24.9023	61.8347	24.9023	61.7153	24.9023	61.8385
26.3672	60.3125	26.3672	60.2704	26.3672	60.368	26.3672	60.2493	26.3672	60.4346	26.3672	60.2609	26.3672	60.5155	26.3672	60.3197	26.3672	60.6186	26.3672	60.4399	26.3672	60.756	26.3672	60.6325	26.3672	60.941	26.3672	60.9018	26.3672	61.1845	26.3672	61.2439	26.3672	61.4915	26.3672	61.6464	26.3672	61.8574	26.3672	62.0909	26.3672	62.2681	26.3672	62.5546	26.3672	62.7017	26.3672	63.0135	26.3672	63.1329	26.3672	63.4439	26.3672	63.5369	26.3672	63.8242	26.3672	63.8924	26.3672	64.137	26.3672	64.183	26.3672	64.3693	26.3672	64.3967	26.3672	64.5133	26.3672	64.5258	26.3672	64.5655
27.832	59.962	27.832	59.9404	27.832	59.9844	27.832	59.9265	27.832	60.0091	27.832	59.9348	27.832	60.0459	27.832	59.986	27.832	60.1122	27.832	60.103	27.832	60.231	27.832	60.3057	27.832	60.4252	27.832	60.6049	27.832	60.7107	27.832	60.998	27.832	61.0893	27.832	61.4686	27.832	61.5473	27.832	61.9908	27.832	62.0583	27.832	62.5335	27.832	62.5902	27.832	63.0652	27.832	63.1109	27.832	63.5577	27.832	63.592	27.832	63.9872	27.832	64.0109	27.832	64.3359	27.832	64.3505	27.832	64.5919	27.832	64.5996	27.832	64.7479	27.832	64.7511	27.832	64.8011
29.2969	64.6591	29.2969	64.6398	29.2969	64.6946	29.2969	64.6391	29.2969	64.7475	29.2969	64.6628	29.2969	64.8219	29.2969	64.7198	29.2969	64.9242	29.2969	64.8199	29.2969	65.0611	29.2969	64.972	29.2969	65.2381	29.2969	65.1814	29.2969	65.4578	29.2969	65.4476	29.2969	65.7188	29.2969	65.7632	29.2969	66.0155	29.2969	66.1149	29.2969	66.3385	29.2969	66.485	29.2969	66.6746	29.2969	66.8543	29.2969	67.0086	29.2969	67.2037	29.2969	67.3241	29.2969	67.5156	29.2969	67.6052	29.2969	67.7753	29.2969	67.8378	29.2969	67.9712	29.2969	68.0102	29.2969	68.0952	29.2969	68.1138	29.2969	68.143
30.7617	66.1018	30.7617	66.0513	30.7617	66.1712	30.7617	66.0228	30.7617	66.2592	30.7617	66.0224	30.7617	66.3682	30.7617	66.0581	30.7617	66.5024	30.7617	66.1385	30.7617	66.667	30.7617	66.2714	30.7617	66.8664	30.7617	66.461	30.7617	67.1026	30.7617	66.7064	30.7617	67.3735	30.7617	67.0009	30.7617	67.6725	30.7617	67.3325	30.7617	67.9884	30.7617	67.6856	30.7617	68.307	30.7617	68.0427	30.7617	68.6124	30.7617	68.3866	30.7617	68.8888	30.7617	68.7014	30.7617	69.1221	30.7617	68.9738	30.7617	69.3008	30.7617	69.1928	30.7617	69.4165	30.7617	69.3507	30.7617	69.4643	30.7617	69.4422
32.2266	68.1906	32.2266	68.1702	32.2266	68.2291	32.2266	68.1695	32.2266	68.2867	32.2266	68.1922	32.2266	68.3661	32.2266	68.2439	32.2266	68.4714	32.2266	68.3311	32.2266	68.607	32.2266	68.4595	32.2266	68.776	32.2266	68.6323	32.2266	68.9795	32.2266	68.8488	32.2266	69.2148	32.2266	69.1039	32.2266	69.4753	32.2266	69.3878	32.2266	69.7511	32.2266	69.6876	32.2266	70.0297	32.2266	69.9884	32.2266	70.2979	32.2266	70.275	32.2266	70.5429	32.2266	70.5335	32.2266	70.7531	32.2266	70.7522	32.2266	70.9193	32.2266	70.9221	32.2266	71.0344	32.2266	71.0375	32.2266	71.0938	32.2266	71.0951
33.6914	69.802	33.6914	69.79	33.6914	69.8302	33.6914	69.7957	33.6914	69.8749	33.6914	69.8223	33.6914	69.9381	33.6914	69.8741	33.6914	70.0234	33.6914	69.9559	33.6914	70.1346	33.6914	70.0713	33.6914	70.2748	33.6914	70.2224	33.6914	70.4453	33.6914	70.4084	33.6914	70.644	33.6914	70.6251	33.6914	70.8658	33.6914	70.8652	33.6914	71.1023	33.6914	71.1186	33.6914	71.3433	33.6914	71.3732	33.6914	71.5775	33.6914	71.6166	33.6914	71.7938	33.6914	71.8365	33.6914	71.9817	33.6914	72.0224	33.6914	72.1326	33.6914	72.1659	33.6914	72.2397	33.6914	72.2613	33.6914	72.2983	33.6914	72.3058
35.1562	71.5613	35.1562	71.5425	35.1562	71.598	35.1562	71.5424	35.1562	71.6533	35.1562	71.5632	35.1562	71.7289	35.1562	71.6082	35.1562	71.8273	35.1562	71.6811	35.1562	71.951	35.1562	71.7854	35.1562	72.1012	35.1562	71.9229	35.1562	72.2776	35.1562	72.0934	35.1562	72.477	35.1562	72.2938	35.1562	72.6939	35.1562	72.5183	35.1562	72.9205	35.1562	72.7581	35.1562	73.1474	35.1562	73.0028	35.1562	73.3646	35.1562	73.241	35.1562	73.562	35.1562	73.4611	35.1562	73.7301	35.1562	73.6524	35.1562	73.8608	35.1562	73.806	35.1562	73.9479	35.1562	73.9153	35.1562	73.9871	35.1562	73.9763
36.6211	72.993	36.6211	72.9784	36.6211	73.0254	36.6211	72.9823	36.6211	73.0764	36.6211	73.0061	36.6211	73.1472	36.6211	73.0525	36.6211	73.2397	36.6211	73.1241	36.6211	73.3555	36.6211	73.2234	36.6211	73.4952	36.6211	73.3517	36.6211	73.6574	36.6211	73.508	36.6211	73.8391	36.6211	73.6894	36.6211	74.0347	36.6211	73.8901	36.6211	74.2371	36.6211	74.1024	36.6211	74.4381	36.6211	74.3171	36.6211	74.629	36.6211	74.5245	36.6211	74.8014	36.6211	74.715	36.6211	74.9473	36.6211	74.88	36.6211	75.0602	36.6211	75.0122	36.6211	75.135	36.6211	75.1063	36.6211	75.1684	36.6211	75.1589
38.0859	74.6062	38.0859	74.5966	38.0859	74.6333	38.0859	74.605	38.0859	74.6782	38.0859	74.6327	38.0859	74.7417	38.0859	74.6812	38.0859	74.8247	38.0859	74.7523	38.0859	74.9281	38.0859	74.8475	38.0859	75.0518	38.0859	74.9672	38.0859	75.1944	38.0859	75.1104	38.0859	75.3534	38.0859	75.274	38.0859	75.5244	38.0859	75.4532	38.0859	75.7019	38.0859	75.6413	38.0859	75.8791	38.0859	75.8304	38.0859	76.0488	38.0859	76.0119	38.0859	76.2037	38.0859	76.1774	38.0859	76.3367	38.0859	76.3192	38.0859	76.4418	38.0859	76.4309	38.0859	76.514	38.0859	76.5083	38.0859	76.5502	38.0859	76.5484
39.5508	76.1302	39.5508	76.1211	39.5508	76.1564	39.5508	76.1294	39.5508	76.1995	39.5508	76.1562	39.5508	76.2596	39.5508	76.2026	39.5508	76.3371	39.5508	76.2698	39.5508	76.4321	39.5508	76.3584	39.5508	76.5443	39.5508	76.4684	39.5508	76.6727	39.5508	76.5984	39.5508	76.8153	39.5508	76.7458	39.5508	76.969	39.5508	76.9065	39.5508	77.1292	39.5508	77.0748	39.5508	77.2902	39.5508	77.2443	39.5508	77.4453	39.5508	77.4077	39.5508	77.5875	39.5508	77.5578	39.5508	77.7097	39.5508	77.6875	39.5508	77.8062	39.5508	77.7908	39.5508	77.8721	39.5508	77.8631	39.5508	77.9044	39.5508	77.9014
41.0156	77.4783	41.0156	77.4758	41.0156	77.4958	41.0156	77.4883	41.0156	77.5288	41.0156	77.5164	41.0156	77.5779	41.0156	77.5609	41.0156	77.6439	41.0156	77.6231	41.0156	77.7272	41.0156	77.7042	41.0156	77.8278	41.0156	77.8049	41.0156	77.945	41.0156	77.925	41.0156	78.0771	41.0156	78.0631	41.0156	78.2213	41.0156	78.2162	41.0156	78.3734	41.0156	78.3792	41.0156	78.5283	41.0156	78.5452	41.0156	78.6796	41.0156	78.7059	41.0156	78.8208	41.0156	78.8527	41.0156	78.9451	41.0156	78.9776	41.0156	79.0464	41.0156	79.0742	41.0156	79.1194	41.0156	79.138	41.0156	79.1604	41.0156	79.167
42.4805	78.4957	42.4805	78.4952	42.4805	78.5103	42.4805	78.5091	42.4805	78.5394	42.4805	78.5379	42.4805	78.5833	42.4805	78.5822	42.4805	78.6424	42.4805	78.6428	42.4805	78.7172	42.4805	78.7201	42.4805	78.8075	42.4805	78.8138	42.4805	78.9128	42.4805	78.923	42.4805	79.031	42.4805	79.0454	42.4805	79.1595	42.4805	79.1774	42.4805	79.2941	42.4805	79.3147	42.4805	79.4299	42.4805	79.4519	42.4805	79.5613	42.4805	79.5833	42.4805	79.6825	42.4805	79.703	42.4805	79.7881	42.4805	79.8056	42.4805	79.873	42.4805	79.8863	42.4805	79.933	42.4805	79.9413	42.4805	79.9652	42.4805	79.968
43.9453	79.431	43.9453	79.4323	43.9453	79.4425	43.9453	79.4466	43.9453	79.467	43.9453	79.4745	43.9453	79.5047	43.9453	79.5166	43.9453	79.556	43.9453	79.5732	43.9453	79.621	43.9453	79.6445	43.9453	79.6999	43.9453	79.7301	43.9453	79.792	43.9453	79.8287	43.9453	79.896	43.9453	79.938	43.9453	80.0098	43.9453	80.0552	43.9453	80.13	43.9453	80.1763	43.9453	80.2526	43.9453	80.297	43.9453	80.3724	43.9453	80.4125	43.9453	80.4842	43.9453	80.5181	43.9453	80.5824	43.9453	80.6088	43.9453	80.6619	43.9453	80.6805	43.9453	80.7186	43.9453	80.7295	43.9453	80.7494	43.9453	80.7529
45.4102	80.1451	45.4102	80.1508	45.4102	80.1509	45.4102	80.1682	45.4102	80.1684	45.4102	80.1972	45.4102	80.198	45.4102	80.2381	45.4102	80.2401	45.4102	80.2911	45.4102	80.2949	45.4102	80.3562	45.4102	80.3624	45.4102	80.4329	45.4102	80.4423	45.4102	80.5201	45.4102	80.5333	45.4102	80.6162	45.4102	80.6335	45.4102	80.7187	45.4102	80.74	45.4102	80.8245	45.4102	80.849	45.4102	80.9297	45.4102	80.9565	45.4102	81.0303	45.4102	81.0575	45.4102	81.1218	45.4102	81.1475	45.4102	81.1997	45.4102	81.2217	45.4102	81.2601	45.4102	81.2763	45.4102	81.2997	45.4102	81.3083	45.4102	81.3161
46.875	80.6237	46.875	80.6302	46.875	80.628	46.875	80.6475	46.875	80.6434	46.875	80.6755	46.875	80.6703	46.875	80.7145	46.875	80.709	46.875	80.7647	46.875	80.7597	46.875	80.826	46.875	80.8223	46.875	80.8982	46.875	80.8964	46.875	80.9806	46.875	80.9809	46.875	81.0715	46.875	81.0738	46.875	81.1687	46.875	81.1727	46.875	81.269	46.875	81.2741	46.875	81.3684	46.875	81.3743	46.875	81.4628	46.875	81.4688	46.875	81.5479	46.875	81.5535	46.875	81.6194	46.875	81.6241	46.875	81.6736	46.875	81.6771	46.875	81.7078	46.875	81.7096	46.875	81.7201
48.3398	81.1033	48.3398	81.1098	48.3398	81.107	48.3398	81.1266	48.3398	81.1213	48.3398	81.1535	48.3398	81.1462	48.3398	81.1905	48.3398	81.1821	48.3398	81.2375	48.3398	81.2288	48.3398	81.2943	48.3398	81.2861	48.3398	81.3605	48.3398	81.3535	48.3398	81.4351	48.3398	81.43	48.3398	81.5167	48.3398	81.5139	48.3398	81.6034	48.3398	81.603	48.3398	81.6925	48.3398	81.6942	48.3398	81.7808	48.3398	81.7842	48.3398	81.8645	48.3398	81.869	48.3398	81.94	48.3398	81.9449	48.3398	82.0034	48.3398	82.0079	48.3398	82.0517	48.3398	82.0551	48.3398	82.0822	48.3398	82.084	48.3398	82.0932
51.2695	81.8191	51.2695	81.8268	51.2695	81.8207	51.2695	81.8436	51.2695	81.8316	51.2695	81.8695	51.2695	81.8517	51.2695	81.9042	51.2695	81.881	51.2695	81.9473	51.2695	81.9192	51.2695	81.9982	51.2695	81.9659	51.2695	82.0562	51.2695	82.0207	51.2695	82.1203	51.2695	82.0825	51.2695	82.1892	51.2695	82.1502	51.2695	82.2613	51.2695	82.222	51.2695	82.3342	51.2695	82.2958	51.2695	82.4054	51.2695	82.3688	51.2695	82.4719	51.2695	82.4384	51.2695	82.5304	51.2695	82.5015	51.2695	82.5782	51.2695	82.5551	51.2695	82.6129	51.2695	82.5968	51.2695	82.6327	51.2695	82.6245	51.2695	82.6367
52.7344	82.1152	52.7344	82.1234	52.7344	82.1142	52.7344	82.1386	52.7344	82.1204	52.7344	82.1604	52.7344	82.1342	52.7344	82.1888	52.7344	82.1555	52.7344	82.2233	52.7344	82.1843	52.7344	82.2637	52.7344	82.2205	52.7344	82.3094	52.7344	82.2637	52.7344	82.36	52.7344	82.3133	52.7344	82.4144	52.7344	82.3682	52.7344	82.4714	52.7344	82.4272	52.7344	82.5294	52.7344	82.4884	52.7344	82.5863	52.7344	82.5496	52.7344	82.6398	52.7344	82.6082	52.7344	82.6873	52.7344	82.6617	52.7344	82.7265	52.7344	82.7073	52.7344	82.7553	52.7344	82.7426	52.7344	82.7721	52.7344	82.7658	52.7344	82.7758
54.1992	82.2456	54.1992	82.2548	54.1992	82.2433	54.1992	82.2705	54.1992	82.2478	54.1992	82.2927	54.1992	82.2594	54.1992	82.321	54.1992	82.2781	54.1992	82.3552	54.1992	82.3039	54.1992	82.3949	54.1992	82.3366	54.1992	82.4394	54.1992	82.3758	54.1992	82.488	54.1992	82.421	54.1992	82.5397	54.1992	82.4713	54.1992	82.593	54.1992	82.5256	54.1992	82.6464	54.1992	82.5822	54.1992	82.6977	54.1992	82.6391	54.1992	82.7451	54.1992	82.6941	54.1992	82.7863	54.1992	82.7446	54.1992	82.8197	54.1992	82.7881	54.1992	82.8434	54.1992	82.8225	54.1992	82.8563	54.1992	82.8459	54.1992	82.8572
55.6641	82.3319	55.6641	82.347	55.6641	82.3213	55.6641	82.3662	55.6641	82.3154	55.6641	82.3893	55.6641	82.3143	55.6641	82.4161	55.6641	82.3184	55.6641	82.4461	55.6641	82.3276	55.6641	82.4789	55.6641	82.3423	55.6641	82.5141	55.6641	82.3624	55.6641	82.5508	55.6641	82.3879	55.6641	82.588	55.6641	82.4186	55.6641	82.6247	55.6641	82.4541	55.6641	82.6596	55.6641	82.4937	55.6641	82.6913	55.6641	82.536	55.6641	82.7184	55.6641	82.5796	55.6641	82.7396	55.6641	82.6225	55.6641	82.7539	55.6641	82.6626	55.6641	82.7602	55.6641	82.6978	55.6641	82.7578	55.6641	82.7262	55.6641	82.7464
58.5938	82.3491	58.5938	82.3559	58.5938	82.3477	58.5938	82.368	58.5938	82.3519	58.5938	82.385	58.5938	82.3616	58.5938	82.4067	58.5938	82.3767	58.5938	82.4325	58.5938	82.397	58.5938	82.4621	58.5938	82.4222	58.5938	82.4949	58.5938	82.452	58.5938	82.5303	58.5938	82.4857	58.5938	82.5676	58.5938	82.5225	58.5938	82.606	58.5938	82.5616	58.5938	82.6443	58.5938	82.6016	58.5938	82.6814	58.5938	82.6413	58.5938	82.7155	58.5938	82.6791	58.5938	82.7451	58.5938	82.7134	58.5938	82.7685	58.5938	82.743	58.5938	82.7846	58.5938	82.7666	58.5938	82.7926	58.5938	82.7832	58.5938	82.7921
60.0586	82.4989	60.0586	82.5077	60.0586	82.4953	60.0586	82.5214	60.0586	82.4972	60.0586	82.5397	60.0586	82.5044	60.0586	82.5619	60.0586	82.5169	60.0586	82.5874	60.0586	82.5345	60.0586	82.6155	60.0586	82.5568	60.0586	82.6454	60.0586	82.5834	60.0586	82.6765	60.0586	82.614	60.0586	82.7083	60.0586	82.6477	60.0586	82.74	60.0586	82.6837	60.0586	82.771	60.0586	82.7209	60.0586	82.8004	60.0586	82.7577	60.0586	82.8274	60.0586	82.7926	60.0586	82.8511	60.0586	82.8242	60.0586	82.8702	60.0586	82.851	60.0586	82.8841	60.0586	82.8718	60.0586	82.8917	60.0586	82.8858	60.0586	82.8924
62.9883	82.7081	62.9883	82.7097	62.9883	82.7104	62.9883	82.7154	62.9883	82.7168	62.9883	82.7251	62.9883	82.7268	62.9883	82.7383	62.9883	82.7404	62.9883	82.7548	62.9883	82.7572	62.9883	82.7741	62.9883	82.777	62.9883	82.7956	62.9883	82.7994	62.9883	82.819	62.9883	82.8241	62.9883	82.8437	62.9883	82.8504	62.9883	82.8689	62.9883	82.8777	62.9883	82.8941	62.9883	82.905	62.9883	82.9183	62.9883	82.931	62.9883	82.9409	62.9883	82.9547	62.9883	82.9611	62.9883	82.975	62.9883	82.9784	62.9883	82.991	62.9883	82.9923	62.9883	83.0019	62.9883	83.0022	62.9883	83.0074	62.9883	83.0074
64.4531	82.7926	64.4531	82.7942	64.4531	82.794	64.4531	82.7987	64.4531	82.7983	64.4531	82.8057	64.4531	82.8054	64.4531	82.8151	64.4531	82.8149	64.4531	82.8263	64.4531	82.8265	64.4531	82.839	64.4531	82.8399	64.4531	82.8529	64.4531	82.8547	64.4531	82.8674	64.4531	82.8707	64.4531	82.8823	64.4531	82.8873	64.4531	82.8971	64.4531	82.9042	64.4531	82.9116	64.4531	82.9208	64.4531	82.9252	64.4531	82.9365	64.4531	82.9378	64.4531	82.9504	64.4531	82.9492	64.4531	82.962	64.4531	82.9591	64.4531	82.9707	64.4531	82.9673	64.4531	82.9762	64.4531	82.9736	64.4531	82.9784	64.4531	82.9774
67.3828	82.8885	67.3828	82.8855	67.3828	82.895	67.3828	82.8858	67.3828	82.9045	67.3828	82.8893	67.3828	82.9168	67.3828	82.8956	67.3828	82.9312	67.3828	82.9042	67.3828	82.9471	67.3828	82.9147	67.3828	82.9637	67.3828	82.9266	67.3828	82.9804	67.3828	82.9395	67.3828	82.9966	67.3828	82.9531	67.3828	83.0118	67.3828	82.9673	67.3828	83.0256	67.3828	82.9816	67.3828	83.0375	67.3828	82.9958	67.3828	83.0472	67.3828	83.0091	67.3828	83.0543	67.3828	83.0214	67.3828	83.0589	67.3828	83.0322	67.3828	83.0611	67.3828	83.0414	67.3828	83.061	67.3828	83.049	67.3828	83.0589	67.3828	83.0548
68.8477	82.8997	68.8477	82.8947	68.8477	82.9078	68.8477	82.893	68.8477	82.9189	68.8477	82.8944	68.8477	82.9325	68.8477	82.8987	68.8477	82.9479	68.8477	82.9053	68.8477	82.9647	68.8477	82.9139	68.8477	82.9821	68.8477	82.9239	68.8477	82.9996	68.8477	82.9351	68.8477	83.0167	68.8477	82.9473	68.8477	83.0328	68.8477	82.9602	68.8477	83.0474	68.8477	82.9738	68.8477	83.06	68.8477	82.9878	68.8477	83.0701	68.8477	83.0019	68.8477	83.0772	68.8477	83.0158	68.8477	83.0811	68.8477	83.0293	68.8477	83.0815	68.8477	83.0421	68.8477	83.0787	68.8477	83.054	68.8477	83.0729	68.8477	83.0645
71.7773	83.0269	71.7773	83.0209	71.7773	83.0332	71.7773	83.0148	71.7773	83.0398	71.7773	83.0086	71.7773	83.0471	71.7773	83.0021	71.7773	83.055	71.7773	82.9954	71.7773	83.0634	71.7773	82.9888	71.7773	83.0723	71.7773	82.9827	71.7773	83.0816	71.7773	82.9778	71.7773	83.0911	71.7773	82.9748	71.7773	83.1009	71.7773	82.9746	71.7773	83.1106	71.7773	82.9782	71.7773	83.1202	71.7773	82.9863	71.7773	83.1289	71.7773	82.9994	71.7773	83.1359	71.7773	83.0171	71.7773	83.14	71.7773	83.0384	71.7773	83.1399	71.7773	83.0619	71.7773	83.1346	71.7773	83.0853	71.7773	83.1233	71.7773	83.1064
74.707	83.2548	74.707	83.2488	74.707	83.2615	74.707	83.2436	74.707	83.2689	74.707	83.2389	74.707	83.2766	74.707	83.2345	74.707	83.2844	74.707	83.23	74.707	83.2918	74.707	83.2252	74.707	83.2983	74.707	83.2196	74.707	83.3036	74.707	83.2132	74.707	83.3074	74.707	83.2061	74.707	83.3094	74.707	83.199	74.707	83.3093	74.707	83.1926	74.707	83.3071	74.707	83.1879	74.707	83.3026	74.707	83.1859	74.707	83.2957	74.707	83.1875	74.707	83.2863	74.707	83.1929	74.707	83.2746	74.707	83.2022	74.707	83.2607	74.707	83.2148	74.707	83.2454	74.707	83.2296
77.6367	83.4191	77.6367	83.4207	77.6367	83.4179	77.6367	83.4225	77.6367	83.4169	77.6367	83.4245	77.6367	83.4159	77.6367	83.4262	77.6367	83.4144	77.6367	83.427	77.6367	83.412	77.6367	83.4263	77.6367	83.4083	77.6367	83.4235	77.6367	83.4028	77.6367	83.4181	77.6367	83.3951	77.6367	83.4098	77.6367	83.385	77.6367	83.3986	77.6367	83.3727	77.6367	83.3848	77.6367	83.3583	77.6367	83.3688	77.6367	83.3425	77.6367	83.3514	77.6367	83.3262	77.6367	83.3336	77.6367	83.3107	77.6367	83.3165	77.6367	83.2972	77.6367	83.3014	77.6367	83.2875	77.6367	83.29	77.6367	83.2826	77.6367	83.2835
79.1016	83.4381	79.1016	83.4396	79.1016	83.4361	79.1016	83.4403	79.1016	83.4335	79.1016	83.4401	79.1016	83.4302	79.1016	83.4384	79.1016	83.4261	79.1016	83.4351	79.1016	83.4207	79.1016	83.4296	79.1016	83.4137	79.1016	83.4218	79.1016	83.4048	79.1016	83.4115	79.1016	83.3938	79.1016	83.3989	79.1016	83.3807	79.1016	83.3841	79.1016	83.3654	79.1016	83.3676	79.1016	83.3485	79.1016	83.3499	79.1016	83.3305	79.1016	83.3315	79.1016	83.3124	79.1016	83.3131	79.1016	83.2952	79.1016	83.2959	79.1016	83.2803	79.1016	83.2809	79.1016	83.2694	79.1016	83.2697	79.1016	83.2635	79.1016	83.2637
82.0312	83.5824	82.0312	83.5747	82.0312	83.5888	82.0312	83.5658	82.0312	83.5939	82.0312	83.5557	82.0312	83.5974	82.0312	83.5441	82.0312	83.5988	82.0312	83.531	82.0312	83.5976	82.0312	83.5166	82.0312	83.5932	82.0312	83.5009	82.0312	83.5851	82.0312	83.4844	82.0312	83.5729	82.0312	83.4675	82.0312	83.5564	82.0312	83.4505	82.0312	83.5361	82.0312	83.4338	82.0312	83.5123	82.0312	83.4175	82.0312	83.4861	82.0312	83.4018	82.0312	83.4587	82.0312	83.3871	82.0312	83.4317	82.0312	83.3744	82.0312	83.4069	82.0312	83.365	82.0312	83.386	82.0312	83.3605	82.0312	83.3708	82.0312	83.3622
84.9609	83.6184	84.9609	83.6043	84.9609	83.6328	84.9609	83.5912	84.9609	83.647	84.9609	83.579	84.9609	83.6601	84.9609	83.5678	84.9609	83.6709	84.9609	83.5573	84.9609	83.6784	84.9609	83.5475	84.9609	83.6817	84.9609	83.5381	84.9609	83.6803	84.9609	83.5293	84.9609	83.674	84.9609	83.5212	84.9609	83.6629	84.9609	83.5143	84.9609	83.6479	84.9609	83.5087	84.9609	83.6298	84.9609	83.5048	84.9609	83.6099	84.9609	83.5024	84.9609	83.5894	84.9609	83.5016	84.9609	83.5696	84.9609	83.5022	84.9609	83.5517	84.9609	83.5044	84.9609	83.5363	84.9609	83.5085	84.9609	83.5241	84.9609	83.5149
87.8906	83.523	87.8906	83.5371	87.8906	83.5107	87.8906	83.5523	87.8906	83.5006	87.8906	83.5682	87.8906	83.4932	87.8906	83.584	87.8906	83.4888	87.8906	83.5995	87.8906	83.488	87.8906	83.6141	87.8906	83.4909	87.8906	83.6275	87.8906	83.4979	87.8906	83.6398	87.8906	83.5089	87.8906	83.6509	87.8906	83.5238	87.8906	83.6611	87.8906	83.542	87.8906	83.6704	87.8906	83.5628	87.8906	83.6791	87.8906	83.5851	87.8906	83.6868	87.8906	83.6078	87.8906	83.6933	87.8906	83.6296	87.8906	83.6977	87.8906	83.6496	87.8906	83.6993	87.8906	83.667	87.8906	83.6973	87.8906	83.6811	87.8906	83.6913
90.8203	84.2278	90.8203	84.2454	90.8203	84.1987	90.8203	84.2512	90.8203	84.1585	90.8203	84.245	90.8203	84.1077	90.8203	84.2265	90.8203	84.0471	90.8203	84.1958	90.8203	83.9779	90.8203	84.1529	90.8203	83.9019	90.8203	84.0984	90.8203	83.8215	90.8203	84.0332	90.8203	83.7392	90.8203	83.9587	90.8203	83.6583	90.8203	83.8773	90.8203	83.5817	90.8203	83.7918	90.8203	83.5124	90.8203	83.7055	90.8203	83.4523	90.8203	83.6221	90.8203	83.4033	90.8203	83.545	90.8203	83.3661	90.8203	83.4771	90.8203	83.3415	90.8203	83.4207	90.8203	83.3299	90.8203	83.3772	90.8203	83.3318	90.8203	83.3475
95.2148	83.9611	95.2148	83.954	95.2148	83.9651	95.2148	83.9445	95.2148	83.9656	95.2148	83.933	95.2148	83.9624	95.2148	83.9201	95.2148	83.9557	95.2148	83.9062	95.2148	83.9458	95.2148	83.8917	95.2148	83.9337	95.2148	83.8773	95.2148	83.9202	95.2148	83.8633	95.2148	83.9065	95.2148	83.8507	95.2148	83.8936	95.2148	83.84	95.2148	83.8822	95.2148	83.8322	95.2148	83.8727	95.2148	83.8276	95.2148	83.8654	95.2148	83.8265	95.2148	83.86	95.2148	83.8283	95.2148	83.8561	95.2148	83.8322	95.2148	83.8533	95.2148	83.837	95.2148	83.8509	95.2148	83.8416	95.2148	83.8484	95.2148	83.8454
98.1445	84.1034	98.1445	84.1096	98.1445	84.0935	98.1445	84.1119	98.1445	84.0799	98.1445	84.1107	98.1445	84.0629	98.1445	84.1061	98.1445	84.0431	98.1445	84.0983	98.1445	84.0211	98.1445	84.0874	98.1445	83.9975	98.1445	84.0735	98.1445	83.9733	98.1445	84.0567	98.1445	83.9493	98.1445	84.0371	98.1445	83.9264	98.1445	84.015	98.1445	83.9053	98.1445	83.991	98.1445	83.8864	98.1445	83.9659	98.1445	83.87	98.1445	83.9406	98.1445	83.8566	98.1445	83.9161	98.1445	83.8462	98.1445	83.8936	98.1445	83.8395	98.1445	83.8738	98.1445	83.8369	98.1445	83.8577	98.1445	83.8389	98.1445	83.8459
101.074	83.9371	101.074	83.9275	101.074	83.9466	101.074	83.9175	101.074	83.9559	101.074	83.9073	101.074	83.9651	101.074	83.8974	101.074	83.9739	101.074	83.8885	101.074	83.9819	101.074	83.8815	101.074	83.9887	101.074	83.8777	101.074	83.9936	101.074	83.8778	101.074	83.9968	101.074	83.8826	101.074	83.9985	101.074	83.8924	101.074	83.9994	101.074	83.9069	101.074	84.0005	101.074	83.9252	101.074	84.0025	101.074	83.9458	101.074	84.0056	101.074	83.9668	101.074	84.0096	101.074	83.9859	101.074	84.014	101.074	84.0013	101.074	84.0176	101.074	84.012	101.074	84.0193	101.074	84.0178
105.469	84.4027	105.469	84.4026	105.469	84.3926	105.469	84.3914	105.469	84.3741	105.469	84.3691	105.469	84.3496	105.469	84.3368	105.469	84.3219	105.469	84.2961	105.469	84.294	105.469	84.2496	105.469	84.2682	105.469	84.2004	105.469	84.2459	105.469	84.1518	105.469	84.2271	105.469	84.1067	105.469	84.2104	105.469	84.0675	105.469	84.1935	105.469	84.0356	105.469	84.1742	105.469	84.0111	105.469	84.1507	105.469	83.9933	105.469	84.1227	105.469	83.9814	105.469	84.0913	105.469	83.9747	105.469	84.0591	105.469	83.973	105.469	84.0293	105.469	83.9768	105.469	84.0048	105.469	83.9872
108.398	84.5716	108.398	84.5677	108.398	84.5605	108.398	84.5492	108.398	84.5347	108.398	84.5174	108.398	84.4954	108.398	84.4741	108.398	84.445	108.398	84.4212	108.398	84.3866	108.398	84.3612	108.398	84.324	108.398	84.2968	108.398	84.2612	108.398	84.231	108.398	84.2019	108.398	84.167	108.398	84.1492	108.398	84.1082	108.398	84.1048	108.398	84.0573	108.398	84.0696	108.398	84.0163	108.398	84.0428	108.398	83.9861	108.398	84.0229	108.398	83.9667	108.398	84.008	108.398	83.957	108.398	83.996	108.398	83.9551	108.398	83.9855	108.398	83.959	108.398	83.9755	108.398	83.9664
112.793	84.7195	112.793	84.7191	112.793	84.7038	112.793	84.7027	112.793	84.6729	112.793	84.6716	112.793	84.6284	112.793	84.6276	112.793	84.5726	112.793	84.5736	112.793	84.5085	112.793	84.5127	112.793	84.4396	112.793	84.4486	112.793	84.3696	112.793	84.3848	112.793	84.3023	112.793	84.3244	112.793	84.2409	112.793	84.2699	112.793	84.1881	112.793	84.2229	112.793	84.1457	112.793	84.184	112.793	84.114	112.793	84.1529	112.793	84.0923	112.793	84.1286	112.793	84.079	112.793	84.1098	112.793	84.0724	112.793	84.0955	112.793	84.0706	112.793	84.0848	112.793	84.0724	112.793	84.0772
117.188	84.9487	117.188	84.9421	117.188	84.9356	117.188	84.9169	117.188	84.9024	117.188	84.8749	117.188	84.8495	117.188	84.8185	117.188	84.7781	117.188	84.7502	117.188	84.6904	117.188	84.6731	117.188	84.5898	117.188	84.5903	117.188	84.4804	117.188	84.5051	117.188	84.3674	117.188	84.4207	117.188	84.2566	117.188	84.34	117.188	84.1539	117.188	84.2653	117.188	84.0648	117.188	84.198	117.188	83.9932	117.188	84.1386	117.188	83.9416	117.188	84.0868	117.188	83.9101	117.188	84.0417	117.188	83.8972	117.188	84.0021	117.188	83.8998	117.188	83.9674	117.188	83.9144	117.188	83.9377
120.117	85.1442	120.117	85.1315	120.117	85.1364	120.117	85.099	120.117	85.1077	120.117	85.0474	120.117	85.0579	120.117	84.9775	120.117	84.9871	120.117	84.8907	120.117	84.8963	120.117	84.7887	120.117	84.7871	120.117	84.6743	120.117	84.6626	120.117	84.5511	120.117	84.5273	120.117	84.4238	120.117	84.3871	120.117	84.2977	120.117	84.2489	120.117	84.1784	120.117	84.12	120.117	84.0712	120.117	84.0071	120.117	83.9796	120.117	83.9151	120.117	83.9058	120.117	83.8464	120.117	83.8495	120.117	83.8005	120.117	83.8092	120.117	83.7745	120.117	83.7826	120.117	83.7647	120.117	83.7679
124.512	85.0641	124.512	85.0564	124.512	85.0576	124.512	85.0339	124.512	85.0376	124.512	84.9963	124.512	85.005	124.512	84.944	124.512	84.9604	124.512	84.8775	124.512	84.9047	124.512	84.7984	124.512	84.8387	124.512	84.7085	124.512	84.7634	124.512	84.6105	124.512	84.6802	124.512	84.5076	124.512	84.5906	124.512	84.4035	124.512	84.497	124.512	84.3022	124.512	84.4023	124.512	84.2079	124.512	84.3098	124.512	84.1246	124.512	84.223	124.512	84.0558	124.512	84.1451	124.512	84.0044	124.512	84.0786	124.512	83.9719	124.512	84.0253	124.512	83.9587	124.512	83.9867	124.512	83.964
128.906	84.8194	128.906	84.8235	128.906	84.804	128.906	84.8162	128.906	84.7782	128.906	84.7983	128.906	84.7432	128.906	84.7712	128.906	84.7013	128.906	84.7369	128.906	84.6549	128.906	84.6976	128.906	84.6064	128.906	84.6558	128.906	84.5587	128.906	84.6139	128.906	84.5143	128.906	84.5739	128.906	84.4756	128.906	84.5377	128.906	84.4445	128.906	84.5068	128.906	84.4224	128.906	84.4822	128.906	84.41	128.906	84.4642	128.906	84.4066	128.906	84.4527	128.906	84.4104	128.906	84.4466	128.906	84.4186	128.906	84.4441	128.906	84.4279	128.906	84.4429	128.906	84.4357	128.906	84.4406
133.301	85.1164	133.301	85.1237	133.301	85.0932	133.301	85.115	133.301	85.0548	133.301	85.0914	133.301	85.0027	133.301	85.0541	133.301	84.9392	133.301	85.0055	133.301	84.867	133.301	84.9477	133.301	84.7895	133.301	84.8836	133.301	84.71	133.301	84.8156	133.301	84.6319	133.301	84.7463	133.301	84.5582	133.301	84.6778	133.301	84.4918	133.301	84.6122	133.301	84.4349	133.301	84.5514	133.301	84.3894	133.301	84.4968	133.301	84.3561	133.301	84.4496	133.301	84.3348	133.301	84.4104	133.301	84.3244	133.301	84.3792	133.301	84.3227	133.301	84.3557	133.301	84.3278	133.301	84.3388
139.16	85.2234	139.16	85.2239	139.16	85.2027	139.16	85.2043	139.16	85.1627	139.16	85.1662	139.16	85.1051	139.16	85.1122	139.16	85.0331	139.16	85.0461	139.16	84.9503	139.16	84.9725	139.16	84.861	139.16	84.8964	139.16	84.7701	139.16	84.8224	139.16	84.6826	139.16	84.7543	139.16	84.6028	139.16	84.6946	139.16	84.5341	139.16	84.6438	139.16	84.4787	139.16	84.601	139.16	84.437	139.16	84.5644	139.16	84.4087	139.16	84.5317	139.16	84.3925	139.16	84.5014	139.16	84.3872	139.16	84.4726	139.16	84.3913	139.16	84.4458	139.16	84.4035	139.16	84.4222
143.555	85.2453	143.555	85.2313	143.555	85.2394	143.555	85.1973	143.555	85.2148	143.555	85.1445	143.555	85.1735	143.555	85.0751	143.555	85.1186	143.555	84.9928	143.555	85.0534	143.555	84.9024	143.555	84.9815	143.555	84.8099	143.555	84.9067	143.555	84.7218	143.555	84.8323	143.555	84.6444	143.555	84.7614	143.555	84.5825	143.555	84.6964	143.555	84.5383	143.555	84.6392	143.555	84.5109	143.555	84.5911	143.555	84.4968	143.555	84.5524	143.555	84.4911	143.555	84.5234	143.555	84.4891	143.555	84.5033	143.555	84.4878	143.555	84.4913	143.555	84.4861	143.555	84.4858	143.555	84.4848
147.949	85.2638	147.949	85.2441	147.949	85.2614	147.949	85.203	147.949	85.2373	147.949	85.1422	147.949	85.1932	147.949	85.0642	147.949	85.132	147.949	84.9721	147.949	85.0574	147.949	84.8697	147.949	84.9739	147.949	84.7616	147.949	84.8862	147.949	84.6536	147.949	84.799	147.949	84.5519	147.949	84.7169	147.949	84.4628	147.949	84.6434	147.949	84.392	147.949	84.5808	147.949	84.3426	147.949	84.5296	147.949	84.3154	147.949	84.4891	147.949	84.3076	147.949	84.4573	147.949	84.3145	147.949	84.4318	147.949	84.3304	147.949	84.4102	147.949	84.3501	147.949	84.3903	147.949	84.3705
153.809	85.3515	153.809	85.3442	153.809	85.3326	153.809	85.3102	153.809	85.2883	153.809	85.2502	153.809	85.2202	153.809	85.1662	153.809	85.1305	153.809	85.0619	153.809	85.0225	153.809	84.9431	153.809	84.901	153.809	84.8172	153.809	84.7724	153.809	84.6929	153.809	84.6451	153.809	84.5791	153.809	84.5288	153.809	84.484	153.809	84.4324	153.809	84.4136	153.809	84.3631	153.809	84.3703	153.809	84.3238	153.809	84.3525	153.809	84.3123	153.809	84.3547	153.809	84.3222	153.809	84.3689	153.809	84.3444	153.809	84.3861	153.809	84.3697	153.809	84.3984	153.809	84.3901	153.809	84.4003
159.668	85.5445	159.668	85.5439	159.668	85.5216	159.668	85.5206	159.668	85.4755	159.668	85.4764	159.668	85.4078	159.668	85.4137	159.668	85.3218	159.668	85.3354	159.668	85.2217	159.668	85.2446	159.668	85.1131	159.668	85.1449	159.668	85.002	159.668	85.04	159.668	84.8946	159.668	84.9344	159.668	84.7973	159.668	84.833	159.668	84.7158	159.668	84.7411	159.668	84.6548	159.668	84.6642	159.668	84.6166	159.668	84.6069	159.668	84.5994	159.668	84.5719	159.668	84.5979	159.668	84.5584	159.668	84.6037	159.668	84.5625	159.668	84.608	159.668	84.577	159.668	84.6051	159.668	84.5936
165.527	85.3772	165.527	85.3553	165.527	85.3724	165.527	85.3083	165.527	85.3416	165.527	85.2401	165.527	85.2874	165.527	85.1562	165.527	85.2143	165.527	85.0643	165.527	85.1283	165.527	84.9726	165.527	85.0362	165.527	84.8894	165.527	84.945	165.527	84.8213	165.527	84.861	165.527	84.7728	165.527	84.7895	165.527	84.7448	165.527	84.7346	165.527	84.7357	165.527	84.6996	165.527	84.7413	165.527	84.6861	165.527	84.7567	165.527	84.6934	165.527	84.7769	165.527	84.717	165.527	84.7974	165.527	84.7496	165.527	84.8143	165.527	84.7825	165.527	84.8236	165.527	84.8082	165.527	84.8222
171.387	85.7386	171.387	85.7067	171.387	85.7331	171.387	85.637	171.387	85.6926	171.387	85.5316	171.387	85.6213	171.387	85.3953	171.387	85.5249	171.387	85.2362	171.387	85.4109	171.387	85.0651	171.387	85.2877	171.387	84.8948	171.387	85.1643	171.387	84.7391	171.387	85.0484	171.387	84.6101	171.387	84.9463	171.387	84.5169	171.387	84.8619	171.387	84.4633	171.387	84.7973	171.387	84.4478	171.387	84.7529	171.387	84.4639	171.387	84.727	171.387	84.502	171.387	84.7156	171.387	84.5516	171.387	84.7125	171.387	84.6028	171.387	84.7101	171.387	84.6476	171.387	84.7013	171.387	84.681
177.246	85.7214	177.246	85.7325	177.246	85.6739	177.246	85.7054	177.246	85.593	177.246	85.6401	177.246	85.4836	177.246	85.5379	177.246	85.3518	177.246	85.4022	177.246	85.205	177.246	85.2383	177.246	85.0511	177.246	85.0541	177.246	84.8984	177.246	84.8605	177.246	84.7545	177.246	84.6701	177.246	84.6259	177.246	84.4964	177.246	84.5172	177.246	84.3513	177.246	84.4315	177.246	84.2425	177.246	84.3694	177.246	84.1729	177.246	84.329	177.246	84.1404	177.246	84.3052	177.246	84.1386	177.246	84.2901	177.246	84.1589	177.246	84.2753	177.246	84.191	177.246	84.2544	177.246	84.2253
183.105	85.4	183.105	85.422	183.105	85.3506	183.105	85.4167	183.105	85.2756	183.105	85.3856	183.105	85.179	183.105	85.3314	183.105	85.0671	183.105	85.2575	183.105	84.9478	183.105	85.1679	183.105	84.8297	183.105	85.0672	183.105	84.72	183.105	84.9606	183.105	84.6234	183.105	84.8536	183.105	84.541	183.105	84.752	183.105	84.4719	183.105	84.661	183.105	84.4152	183.105	84.5847	183.105	84.3716	183.105	84.525	183.105	84.3437	183.105	84.4816	183.105	84.3331	183.105	84.4518	183.105	84.3386	183.105	84.4312	183.105	84.3553	183.105	84.4144	183.105	84.3765	183.105	84.3968
188.965	85.6391	188.965	85.6392	188.965	85.5989	188.965	85.6035	188.965	85.5168	188.965	85.5376	188.965	85.3941	188.965	85.4484	188.965	85.2365	188.965	85.3437	188.965	85.0547	188.965	85.2311	188.965	84.8651	188.965	85.1186	188.965	84.688	188.965	85.0139	188.965	84.5431	188.965	84.9241	188.965	84.4442	188.965	84.8548	188.965	84.3949	188.965	84.8089	188.965	84.389	188.965	84.7852	188.965	84.4139	188.965	84.7781	188.965	84.4569	188.965	84.7785	188.965	84.5082	188.965	84.777	188.965	84.562	188.965	84.7662	188.965	84.6148	188.965	84.7431	188.965	84.6644	188.965	84.7082
196.289	85.7861	196.289	85.7652	196.289	85.7639	196.289	85.7043	196.289	85.698	196.289	85.6086	196.289	85.5896	196.289	85.4849	196.289	85.4421	196.289	85.3414	196.289	85.2616	196.289	85.187	196.289	85.0569	196.289	85.0309	196.289	84.84	196.289	84.8824	196.289	84.6254	196.289	84.7498	196.289	84.4287	196.289	84.6396	196.289	84.2643	196.289	84.5549	196.289	84.1431	196.289	84.4947	196.289	84.0709	196.289	84.4541	196.289	84.0472	196.289	84.4261	196.289	84.0651	196.289	84.4027	196.289	84.1124	196.289	84.3767	196.289	84.1748	196.289	84.3424	196.289	84.2392	196.289	84.2966
203.613	85.7853	203.613	85.7554	203.613	85.7685	203.613	85.6797	203.613	85.7062	203.613	85.5616	203.613	85.6008	203.613	85.4075	203.613	85.4566	203.613	85.2266	203.613	85.2802	203.613	85.0305	203.613	85.0807	203.613	84.8321	203.613	84.871	203.613	84.6446	203.613	84.6658	203.613	84.4801	203.613	84.4803	203.613	84.3491	203.613	84.3274	203.613	84.2583	203.613	84.2147	203.613	84.209	203.613	84.1443	203.613	84.196	203.613	84.1133	203.613	84.2083	203.613	84.1148	203.613	84.2313	203.613	84.1397	203.613	84.251	203.613	84.177	203.613	84.2569	203.613	84.2155	203.613	84.2445
210.938	85.7548	210.938	85.7221	210.938	85.7608	210.938	85.6619	210.938	85.7389	210.938	85.5725	210.938	85.6871	210.938	85.4517	210.938	85.6032	210.938	85.2987	210.938	85.4868	210.938	85.1152	210.938	85.3414	210.938	84.9076	210.938	85.1755	210.938	84.6879	210.938	85.0018	210.938	84.4737	210.938	84.8346	210.938	84.2865	210.938	84.6861	210.938	84.1466	210.938	84.563	210.938	84.0666	210.938	84.4663	210.938	84.0458	210.938	84.3931	210.938	84.0699	210.938	84.3393	210.938	84.1172	210.938	84.3014	210.938	84.1673	210.938	84.2755	210.938	84.2079	210.938	84.2561	210.938	84.2361
218.262	85.4588	218.262	85.4697	218.262	85.4187	218.262	85.4502	218.262	85.3522	218.262	85.401	218.262	85.2628	218.262	85.3242	218.262	85.1547	218.262	85.2227	218.262	85.0324	218.262	85.1001	218.262	84.9023	218.262	84.96	218.262	84.7723	218.262	84.8071	218.262	84.652	218.262	84.6485	218.262	84.5505	218.262	84.4942	218.262	84.4739	218.262	84.358	218.262	84.4231	218.262	84.2544	218.262	84.3941	218.262	84.1947	218.262	84.3796	218.262	84.1811	218.262	84.3725	218.262	84.2043	218.262	84.3674	218.262	84.2472	218.262	84.3608	218.262	84.292	218.262	84.3488	218.262	84.3269
225.586	85.4638	225.586	85.5033	225.586	85.3895	225.586	85.5089	225.586	85.2797	225.586	85.4816	225.586	85.1354	225.586	85.4231	225.586	84.9609	225.586	85.3369	225.586	84.7656	225.586	85.2286	225.586	84.5645	225.586	85.1056	225.586	84.3759	225.586	84.976	225.586	84.2174	225.586	84.8467	225.586	84.101	225.586	84.7237	225.586	84.0305	225.586	84.6129	225.586	84.0025	225.586	84.5204	225.586	84.0105	225.586	84.4524	225.586	84.048	225.586	84.4122	225.586	84.1089	225.586	84.3971	225.586	84.1846	225.586	84.3962	225.586	84.2629	225.586	84.3937	225.586	84.3297	225.586	84.3741
232.91	85.0197	232.91	85.0216	232.91	84.9883	232.91	84.9991	232.91	84.9227	232.91	84.958	232.91	84.8196	232.91	84.9043	232.91	84.6785	232.91	84.844	232.91	84.5036	232.91	84.782	232.91	84.3057	232.91	84.7213	232.91	84.1022	232.91	84.6619	232.91	83.9144	232.91	84.602	232.91	83.7625	232.91	84.5399	232.91	83.6609	232.91	84.4753	232.91	83.6146	232.91	84.4105	232.91	83.6196	232.91	84.3493	232.91	83.6657	232.91	84.295	232.91	83.7403	232.91	84.2478	232.91	83.8308	232.91	84.2036	232.91	83.9261	232.91	84.1545	232.91	84.016	232.91	84.0931
241.699	85.1455	241.699	85.1341	241.699	85.0493	241.699	85.0048	241.699	84.8627	241.699	84.7578	241.699	84.6085	241.699	84.4086	241.699	84.3139	241.699	83.9955	241.699	84.0122	241.699	83.5834	241.699	83.7444	241.699	83.2584	241.699	83.5575	241.699	83.102	241.699	83.4955	241.699	83.1527	241.699	83.5807	241.699	83.3875	241.699	83.7969	241.699	83.7408	241.699	84.0935	241.699	84.1389	241.699	84.4075	241.699	84.5224	241.699	84.6899	241.699	84.8509	241.699	84.9177	241.699	85.1013	241.699	85.0906	241.699	85.2649	241.699	85.2182	241.699	85.3449	241.699	85.3071	241.699	85.3537
250.488	86.9701	250.488	86.9591	250.488	86.8831	250.488	86.8481	250.488	86.7006	250.488	86.6356	250.488	86.4263	250.488	86.322	250.488	86.0676	250.488	85.9122	250.488	85.6388	250.488	85.4203	250.488	85.1657	250.488	84.8762	250.488	84.6901	250.488	84.3321	250.488	84.271	250.488	83.8608	250.488	83.9737	250.488	83.5395	250.488	83.8475	250.488	83.4194	250.488	83.8995	250.488	83.5007	250.488	84.0897	250.488	83.7355	250.488	84.3512	250.488	84.0533	250.488	84.6189	250.488	84.3865	250.488	84.8447	250.488	84.682	250.488	84.999	250.488	84.9045	250.488	85.0652	250.488	85.0344
259.277	86.8704	259.277	86.8911	259.277	86.7677	259.277	86.8283	259.277	86.5826	259.277	86.6784	259.277	86.3145	259.277	86.4375	259.277	85.9653	259.277	86.1046	259.277	85.5417	259.277	85.6876	259.277	85.0598	259.277	85.2083	259.277	84.5508	259.277	84.7072	259.277	84.0649	259.277	84.2432	259.277	83.6686	259.277	83.8847	259.277	83.4265	259.277	83.6896	259.277	83.3725	259.277	83.6785	259.277	83.4908	259.277	83.8233	259.277	83.7253	259.277	84.0602	259.277	84.0085	259.277	84.3172	259.277	84.2828	259.277	84.5347	259.277	84.508	259.277	84.6739	259.277	84.6579	259.277	84.7159
268.066	86.9381	268.066	86.9034	268.066	86.8854	268.066	86.7793	268.066	86.7459	268.066	86.563	268.066	86.5198	268.066	86.2514	268.066	86.2075	268.066	85.8443	268.066	85.81	268.066	85.349	268.066	85.3322	268.066	84.787	268.066	84.7881	268.066	84.1997	268.066	84.2132	268.066	83.6516	268.066	83.6751	268.066	83.2248	268.066	83.2679	268.066	82.9966	268.066	83.0731	268.066	83.0028	268.066	83.1049	268.066	83.2099	268.066	83.2998	268.066	83.5266	268.066	83.564	268.066	83.8481	268.066	83.8232	268.066	84.0957	268.066	84.0369	268.066	84.2329	268.066	84.1865	268.066	84.2578
276.855	86.6593	276.855	86.6154	276.855	86.6303	276.855	86.4953	276.855	86.5337	276.855	86.3002	276.855	86.3735	276.855	86.0352	276.855	86.1508	276.855	85.7067	276.855	85.865	276.855	85.321	276.855	85.5145	276.855	84.8873	276.855	85.0991	276.855	84.422	276.855	84.6246	276.855	83.9515	276.855	84.1154	276.855	83.5082	276.855	83.6279	276.855	83.1281	276.855	83.2488	276.855	82.8532	276.855	83.0589	276.855	82.7318	276.855	83.0778	276.855	82.7925	276.855	83.2451	276.855	83.0064	276.855	83.4618	276.855	83.2872	276.855	83.641	276.855	83.5383	276.855	83.7273	276.855	83.694
287.109	86.4212	287.109	86.4445	287.109	86.3423	287.109	86.4135	287.109	86.2045	287.109	86.3248	287.109	86.0046	287.109	86.1689	287.109	85.7401	287.109	85.9329	287.109	85.412	287.109	85.6062	287.109	85.0282	287.109	85.1913	287.109	84.6088	287.109	84.7154	287.109	84.1885	287.109	84.2379	287.109	83.8126	287.109	83.8415	287.109	83.5287	287.109	83.5993	287.109	83.3759	287.109	83.5361	287.109	83.3725	287.109	83.6225	287.109	83.5072	287.109	83.8034	287.109	83.7375	287.109	84.0236	287.109	84.0019	287.109	84.2334	287.109	84.2379	287.109	84.3868	287.109	84.3959	287.109	84.4472
297.363	86.8759	297.363	86.9338	297.363	86.7371	297.363	86.9187	297.363	86.513	297.363	86.8395	297.363	86.2031	297.363	86.701	297.363	85.8097	297.363	86.4986	297.363	85.339	297.363	86.2186	297.363	84.8073	297.363	85.8446	297.363	84.2491	297.363	85.372	297.363	83.7197	297.363	84.8251	297.363	83.2828	297.363	84.2698	297.363	82.987	297.363	83.8059	297.363	82.8527	297.363	83.5265	297.363	82.8787	297.363	83.4639	297.363	83.0504	297.363	83.576	297.363	83.333	297.363	83.783	297.363	83.6646	297.363	84.0051	297.363	83.9671	297.363	84.1755	297.363	84.1721	297.363	84.2416
307.617	86.7299	307.617	86.5942	307.617	86.7749	307.617	86.3679	307.617	86.7351	307.617	86.0613	307.617	86.6179	307.617	85.6942	307.617	86.4266	307.617	85.2921	307.617	86.1562	307.617	84.8775	307.617	85.7934	307.617	84.4668	307.617	85.3216	307.617	84.074	307.617	84.7374	307.617	83.7208	307.617	84.0713	307.617	83.4394	307.617	83.4062	307.617	83.2601	307.617	82.8697	307.617	83.1921	307.617	82.5791	307.617	83.2183	307.617	82.5685	307.617	83.3074	307.617	82.772	307.617	83.4292	307.617	83.0753	307.617	83.5551	307.617	83.37	307.617	83.6496	307.617	83.5794	307.617	83.6699
319.336	86.7349	319.336	86.6636	319.336	86.7077	319.336	86.4957	319.336	86.5768	319.336	86.2304	319.336	86.3363	319.336	85.8674	319.336	85.984	319.336	85.4104	319.336	85.5288	319.336	84.8716	319.336	84.9976	319.336	84.2714	319.336	84.4398	319.336	83.6366	319.336	83.9245	319.336	83.009	319.336	83.5266	319.336	82.4697	319.336	83.2992	319.336	82.1474	319.336	83.2483	319.336	82.1485	319.336	83.3317	319.336	82.4464	319.336	83.4875	319.336	82.8887	319.336	83.6611	319.336	83.3172	319.336	83.8154	319.336	83.6456	319.336	83.9265	319.336	83.8549	319.336	83.9786	319.336	83.9595
329.59	86.3354	329.59	86.3371	329.59	86.2978	329.59	86.3085	329.59	86.2092	329.59	86.2404	329.59	86.0513	329.59	86.1103	329.59	85.8082	329.59	85.8897	329.59	85.4704	329.59	85.5543	329.59	85.037	329.59	85.0945	329.59	84.5181	329.59	84.5214	329.59	83.9359	329.59	83.8692	329.59	83.3299	329.59	83.2015	329.59	82.7685	329.59	82.6242	329.59	82.3517	329.59	82.2836	329.59	82.1755	329.59	82.293	329.59	82.2634	329.59	82.6156	329.59	82.5439	329.59	83.0679	329.59	82.9049	329.59	83.4557	329.59	83.2541	329.59	83.6684	329.59	83.5299	329.59	83.6834
341.309	86.4732	341.309	86.5253	341.309	86.3364	341.309	86.4965	341.309	86.1078	341.309	86.3826	341.309	85.7827	341.309	86.1732	341.309	85.3608	341.309	85.8586	341.309	84.8433	341.309	85.4359	341.309	84.2332	341.309	84.9097	341.309	83.5492	341.309	84.2911	341.309	82.8557	341.309	83.6008	341.309	82.2879	341.309	82.8819	341.309	82.0168	341.309	82.2161	341.309	82.1256	341.309	81.7305	341.309	82.5222	341.309	81.5648	341.309	83.0182	341.309	81.7801	341.309	83.4555	341.309	82.2794	341.309	83.7536	341.309	82.8642	341.309	83.8929	341.309	83.3654	341.309	83.8774	341.309	83.7057
353.027	86.6683	353.027	86.6485	353.027	86.6224	353.027	86.5578	353.027	86.5076	353.027	86.3865	353.027	86.3142	353.027	86.1253	353.027	86.0319	353.027	85.7688	353.027	85.6533	353.027	85.3215	353.027	85.169	353.027	84.8033	353.027	84.5572	353.027	84.2481	353.027	83.7839	353.027	83.6913	353.027	82.8329	353.027	83.1597	353.027	81.7723	353.027	82.6838	353.027	80.8418	353.027	82.3233	353.027	80.4249	353.027	82.1591	353.027	80.7057	353.027	82.2292	353.027	81.4261	353.027	82.4787	353.027	82.1987	353.027	82.793	353.027	82.79	353.027	83.0605	353.027	83.1193	353.027	83.1929
366.211	86.6576	366.211	86.5613	366.211	86.7027	366.211	86.4135	366.211	86.6899	366.211	86.2083	366.211	86.6036	366.211	85.9336	366.211	86.4213	366.211	85.5728	366.211	86.1243	366.211	85.1109	366.211	85.7056	366.211	84.5444	366.211	85.169	366.211	83.8961	366.211	84.5172	366.211	83.2299	366.211	83.7457	366.211	82.6507	366.211	82.866	366.211	82.264	366.211	81.9612	366.211	82.1058	366.211	81.2301	366.211	82.1217	366.211	80.913	366.211	82.2288	366.211	81.0807	366.211	82.3761	366.211	81.5543	366.211	82.5343	366.211	82.0767	366.211	82.6534	366.211	82.4676	366.211	82.6546
379.395	86.6161	379.395	86.6765	379.395	86.5035	379.395	86.6686	379.395	86.3541	379.395	86.576	379.395	86.1811	379.395	86.3829	379.395	85.9865	379.395	86.0728	379.395	85.7509	379.395	85.6271	379.395	85.4373	379.395	85.0293	379.395	85.0113	379.395	84.2773	379.395	84.4654	379.395	83.4024	379.395	83.8318	379.395	82.4961	379.395	83.1825	379.395	81.7463	379.395	82.618	379.395	81.4102	379.395	82.2467	379.395	81.6112	379.395	82.1481	379.395	82.1689	379.395	82.3225	379.395	82.7764	379.395	82.6743	379.395	83.2339	379.395	83.0607	379.395	83.4774	379.395	83.3625	379.395	83.5126
392.578	86.2719	392.578	86.2543	392.578	86.2438	392.578	86.2011	392.578	86.1484	392.578	86.1098	392.578	85.964	392.578	85.9706	392.578	85.6842	392.578	85.7703	392.578	85.3258	392.578	85.491	392.578	84.921	392.578	85.1089	392.578	84.4951	392.578	84.6039	392.578	84.0479	392.578	83.9798	392.578	83.5599	392.578	83.2783	392.578	83.0315	392.578	82.5717	392.578	82.5322	392.578	81.959	392.578	82.2085	392.578	81.5912	392.578	82.1847	392.578	81.6314	392.578	82.43	392.578	82.0698	392.578	82.7889	392.578	82.6596	392.578	83.1178	392.578	83.1303	392.578	83.3285	392.578	83.3525
405.762	86.5104	405.762	86.498	405.762	86.4275	405.762	86.3742	405.762	86.2705	405.762	86.1481	405.762	86.0469	405.762	85.8586	405.762	85.743	405.762	85.5541	405.762	85.3282	405.762	85.2508	405.762	84.7705	405.762	84.9052	405.762	84.0611	405.762	84.4335	405.762	83.2514	405.762	83.7721	405.762	82.487	405.762	82.9484	405.762	81.9743	405.762	82.1331	405.762	81.8322	405.762	81.5902	405.762	81.993	405.762	81.4628	405.762	82.3164	405.762	81.6475	405.762	82.7081	405.762	81.9772	405.762	83.0896	405.762	82.3767	405.762	83.3515	405.762	82.8085	405.762	83.3919	405.762	83.1866
420.41	86.5159	420.41	86.5325	420.41	86.4573	420.41	86.5042	420.41	86.3536	420.41	86.41	420.41	86.2014	420.41	86.209	420.41	85.9913	420.41	85.8585	420.41	85.7018	420.41	85.3417	420.41	85.2989	420.41	84.6823	420.41	84.7393	420.41	83.9249	420.41	83.9772	420.41	83.0947	420.41	82.9864	420.41	82.195	420.41	81.8209	420.41	81.2926	420.41	80.7105	420.41	80.6307	420.41	80.0646	420.41	80.5394	420.41	80.1316	420.41	81.0458	420.41	80.6954	420.41	81.7969	420.41	81.391	420.41	82.4305	420.41	82.0158	420.41	82.7644	420.41	82.494	420.41	82.768
435.059	86.3883	435.059	86.3368	435.059	86.3772	435.059	86.2284	435.059	86.3019	435.059	86.0727	435.059	86.1502	435.059	85.8613	435.059	85.8946	435.059	85.5523	435.059	85.502	435.059	85.0899	435.059	84.9495	435.059	84.447	435.059	84.236	435.059	83.6456	435.059	83.3878	435.059	82.749	435.059	82.4601	435.059	81.8547	435.059	81.5452	435.059	81.1204	435.059	80.8116	435.059	80.757	435.059	80.5208	435.059	80.884	435.059	80.8343	435.059	81.394	435.059	81.5638	435.059	82.0573	435.059	82.3465	435.059	82.6789	435.059	82.9437	435.059	83.1295	435.059	83.2766	435.059	83.3368
451.172	86.6729	451.172	86.5755	451.172	86.677	451.172	86.391	451.172	86.5886	451.172	86.1366	451.172	86.4128	451.172	85.8501	451.172	86.1494	451.172	85.5791	451.172	85.792	451.172	85.3318	451.172	85.3406	451.172	85.0353	451.172	84.8042	451.172	84.5708	451.172	84.1713	451.172	83.8545	451.172	83.3826	451.172	82.878	451.172	82.3701	451.172	81.6878	451.172	81.184	451.172	80.4229	451.172	80.1457	451.172	79.5321	451.172	79.7613	451.172	79.6215	451.172	80.1671	451.172	80.4996	451.172	80.9645	451.172	81.4455	451.172	81.7239	451.172	82.0863	451.172	82.2133	451.172	82.3426
465.82	86.4597	465.82	86.4653	465.82	86.3661	465.82	86.365	465.82	86.2227	465.82	86.1684	465.82	86.0619	465.82	85.8974	465.82	85.8877	465.82	85.5667	465.82	85.6711	465.82	85.1775	465.82	85.3655	465.82	84.7189	465.82	84.9339	465.82	84.17	465.82	84.3735	465.82	83.5153	465.82	83.7112	465.82	82.7856	465.82	82.9658	465.82	82.0771	465.82	82.1378	465.82	81.4938	465.82	81.3087	465.82	81.0853	465.82	80.7642	465.82	80.9003	465.82	80.7957	465.82	81.0255	465.82	81.2781	465.82	81.4356	465.82	81.8207	465.82	81.9037	465.82	82.1556	465.82	82.1828
483.398	86.0178	483.398	85.9819	483.398	85.9705	483.398	85.8981	483.398	85.8467	483.398	85.8071	483.398	85.685	483.398	85.7099	483.398	85.5129	483.398	85.5617	483.398	85.3199	483.398	85.3089	483.398	85.069	483.398	84.9151	483.398	84.7193	483.398	84.3457	483.398	84.2222	483.398	83.5365	483.398	83.521	483.398	82.407	483.398	82.6073	483.398	80.9775	483.398	81.6476	483.398	79.6479	483.398	81.0379	483.398	79.2838	483.398	81.0709	483.398	80.075	483.398	81.5696	483.398	81.1876	483.398	82.1809	483.398	82.0779	483.398	82.6819	483.398	82.6579	483.398	82.9563	483.398	82.9503
499.512	86.5631	499.512	86.6005	499.512	86.4461	499.512	86.5284	499.512	86.2495	499.512	86.3073	499.512	85.9673	499.512	85.9314	499.512	85.6152	499.512	85.4475	499.512	85.2153	499.512	84.9236	499.512	84.7519	499.512	84.3967	499.512	84.1666	499.512	83.8526	499.512	83.4139	499.512	83.2572	499.512	82.5262	499.512	82.5873	499.512	81.6211	499.512	81.8393	499.512	80.8539	499.512	81.0841	499.512	80.4125	499.512	80.6142	499.512	80.5288	499.512	80.8533	499.512	81.2549	499.512	81.7574	499.512	82.2815	499.512	82.7951	499.512	83.2019	499.512	83.5571	499.512	83.7687	499.512	83.892
517.09	86.2913	517.09	86.1913	517.09	86.2509	517.09	85.9969	517.09	86.0639	517.09	85.7682	517.09	85.767	517.09	85.5411	517.09	85.4249	517.09	85.2998	517.09	85.1024	517.09	84.9833	517.09	84.8223	517.09	84.5159	517.09	84.5299	517.09	83.8388	517.09	84.111	517.09	82.9424	517.09	83.465	517.09	81.9182	517.09	82.579	517.09	80.9992	517.09	81.5664	517.09	80.4592	517.09	80.6893	517.09	80.3988	517.09	80.3236	517.09	80.7544	517.09	80.6779	517.09	81.4303	517.09	81.5113	517.09	82.2413	517.09	82.387	517.09	82.901	517.09	82.995	517.09	83.1802
536.133	87.2355	536.133	87.1251	536.133	87.172	536.133	86.8769	536.133	86.9262	536.133	86.528	536.133	86.5285	536.133	86.1093	536.133	86.0159	536.133	85.6582	536.133	85.3804	536.133	85.2062	536.133	84.5667	536.133	84.7271	536.133	83.5333	536.133	84.1191	536.133	82.2953	536.133	83.2525	536.133	80.8811	536.133	82.0088	536.133	79.3266	536.133	80.3171	536.133	77.9811	536.133	78.4823	536.133	77.8542	536.133	77.8769	536.133	79.2575	536.133	79.1274	536.133	81.0402	536.133	80.6868	536.133	82.392	536.133	81.7937	536.133	83.1162	536.133	82.5201	536.133	83.2697	536.133	83.0179
555.176	86.8476	555.176	86.9229	555.176	86.7276	555.176	86.8947	555.176	86.6059	555.176	86.7228	555.176	86.4742	555.176	86.3825	555.176	86.2799	555.176	85.8658	555.176	85.9665	555.176	85.224	555.176	85.5081	555.176	84.5748	555.176	84.9267	555.176	83.9643	555.176	84.2625	555.176	83.2197	555.176	83.4782	555.176	82.0736	555.176	82.3759	555.176	80.4625	555.176	80.6668	555.176	78.709	555.176	78.3324	555.176	77.4344	555.176	76.6933	555.176	77.3204	555.176	77.5741	555.176	78.5629	555.176	79.3471	555.176	80.2334	555.176	80.6712	555.176	81.3798	555.176	81.4653	555.176	81.7486
574.219	86.5483	574.219	86.4807	574.219	86.4779	574.219	86.2866	574.219	86.2733	574.219	86.004	574.219	85.9618	574.219	85.7082	574.219	85.6021	574.219	85.4773	574.219	85.2533	574.219	85.2957	574.219	84.903	574.219	85.0025	574.219	84.4396	574.219	84.3916	574.219	83.739	574.219	83.3767	574.219	82.8054	574.219	82.0408	574.219	81.7684	574.219	80.494	574.219	80.6408	574.219	78.726	574.219	79.311	574.219	76.9773	574.219	78.1364	574.219	76.5427	574.219	78.1437	574.219	77.9852	574.219	79.3449	574.219	79.7859	574.219	80.6584	574.219	81.0535	574.219	81.4726	574.219	81.6175
594.727	86.4181	594.727	86.4404	594.727	86.2244	594.727	86.2888	594.727	85.9035	594.727	86.0133	594.727	85.505	594.727	85.663	594.727	85.0699	594.727	85.2467	594.727	84.6292	594.727	84.7946	594.727	84.2144	594.727	84.3945	594.727	83.8649	594.727	84.0499	594.727	83.5443	594.727	83.6006	594.727	83.0209	594.727	82.865	594.727	81.935	594.727	81.7215	594.727	80.0531	594.727	80.1684	594.727	77.6867	594.727	78.7699	594.727	76.3879	594.727	78.7681	594.727	77.3872	594.727	79.9092	594.727	79.2121	594.727	80.9711	594.727	80.6859	594.727	81.6153	594.727	81.5549	594.727	81.8351
615.234	86.2482	615.234	86.2658	615.234	86.0722	615.234	86.1068	615.234	85.7839	615.234	85.7797	615.234	85.4244	615.234	85.3288	615.234	85.0114	615.234	84.8391	615.234	84.5958	615.234	84.379	615.234	84.2625	615.234	83.9585	615.234	83.9707	615.234	83.545	615.234	83.4787	615.234	83.0177	615.234	82.5382	615.234	82.1577	615.234	81.0965	615.234	80.828	615.234	79.3422	615.234	79.1461	615.234	77.7805	615.234	77.4505	615.234	77.2757	615.234	76.5358	615.234	78.071	615.234	77.4108	615.234	79.3599	615.234	79.1694	615.234	80.4702	615.234	80.5089	615.234	81.0975	615.234	81.1303
637.207	86.8087	637.207	86.6501	637.207	86.7941	637.207	86.3542	637.207	86.5608	637.207	85.9425	637.207	86.0758	637.207	85.4252	637.207	85.349	637.207	84.8223	637.207	84.4447	637.207	84.1729	637.207	83.4971	637.207	83.5377	637.207	82.712	637.207	83.0132	637.207	82.2026	637.207	82.5948	637.207	81.7982	637.207	81.9873	637.207	81.1662	637.207	80.8088	637.207	79.9783	637.207	78.9735	637.207	78.0921	637.207	77.0203	637.207	76.4355	637.207	76.3381	637.207	77.135	637.207	77.5865	637.207	79.1447	637.207	79.4663	637.207	80.7335	637.207	80.9338	637.207	81.5848	637.207	81.661
659.18	86.7969	659.18	86.7135	659.18	86.7089	659.18	86.4501	659.18	86.4775	659.18	86.0899	659.18	86.0888	659.18	85.7185	659.18	85.5266	659.18	85.2338	659.18	84.8105	659.18	84.4384	659.18	83.9757	659.18	83.3462	659.18	83.0717	659.18	82.21	659.18	82.2058	659.18	81.2701	659.18	81.4431	659.18	80.5194	659.18	80.547	659.18	79.5875	659.18	79.0194	659.18	77.9196	659.18	76.5648	659.18	75.5614	659.18	74.2576	659.18	75.0641	659.18	75.1485	659.18	77.3387	659.18	77.6121	659.18	79.3853	659.18	79.3217	659.18	80.443	659.18	80.2528	659.18	80.6555
682.617	86.3531	682.617	86.4692	682.617	86.0159	682.617	86.3716	682.617	85.5171	682.617	86.0618	682.617	84.9891	682.617	85.5687	682.617	84.4936	682.617	84.9954	682.617	83.9603	682.617	84.4232	682.617	83.3689	682.617	83.8439	682.617	82.8383	682.617	83.1678	682.617	82.3848	682.617	82.187	682.617	81.7755	682.617	80.7684	682.617	80.7162	682.617	79.0986	682.617	78.9767	682.617	77.3368	682.617	76.4029	682.617	75.6065	682.617	73.475	682.617	74.8435	682.617	73.1618	682.617	75.7761	682.617	76.1762	682.617	77.5358	682.617	78.894	682.617	79.0874	682.617	80.1562	682.617	80.0693
707.52	86.1189	707.52	86.0224	707.52	86.1119	707.52	85.8236	707.52	85.9445	707.52	85.523	707.52	85.5605	707.52	85.1414	707.52	85.0142	707.52	84.6845	707.52	84.3953	707.52	84.1042	707.52	83.6951	707.52	83.361	707.52	82.946	707.52	82.6577	707.52	82.3298	707.52	82.2312	707.52	81.7755	707.52	81.7247	707.52	80.8314	707.52	80.5958	707.52	79.2411	707.52	78.632	707.52	77.1885	707.52	76.0241	707.52	75.0629	707.52	73.8616	707.52	73.8104	707.52	74.1553	707.52	74.8347	707.52	76.5502	707.52	77.1237	707.52	78.7926	707.52	79.0108	707.52	79.6822
732.422	85.7849	732.422	85.728	732.422	85.743	732.422	85.5507	732.422	85.6137	732.422	85.292	732.422	85.3342	732.422	84.9801	732.422	84.8497	732.422	84.5611	732.422	84.2125	732.422	84.0577	732.422	83.5285	732.422	83.5934	732.422	82.8689	732.422	83.0511	732.422	82.3092	732.422	82.2037	732.422	81.845	732.422	81.0873	732.422	81.146	732.422	79.6916	732.422	79.6533	732.422	77.554	732.422	77.0086	732.422	74.1355	732.422	73.5	732.422	70.2608	732.422	71.26	732.422	72.3944	732.422	73.1342	732.422	76.3089	732.422	75.7731	732.422	78.0845	732.422	77.3862	732.422	78.1977
757.324	86.0781	757.324	85.9244	757.324	85.9192	757.324	85.5388	757.324	85.5398	757.324	85.0926	757.324	85.0396	757.324	84.6565	757.324	84.3993	757.324	84.1611	757.324	83.6689	757.324	83.4688	757.324	83.137	757.324	82.6328	757.324	82.9387	757.324	82.1782	757.324	82.7456	757.324	82.3014	757.324	82.3239	757.324	82.1948	757.324	81.7015	757.324	81.1257	757.324	80.6124	757.324	78.9691	757.324	78.4937	757.324	76.0203	757.324	75.0374	757.324	73.5696	757.324	72.4146	757.324	74.3546	757.324	74.4568	757.324	76.4032	757.324	76.7342	757.324	77.6478	757.324	77.8447	757.324	78.1016
785.156	85.0686	785.156	85.2073	785.156	84.8321	785.156	85.2549	785.156	84.4162	785.156	85.0115	785.156	83.7404	785.156	84.2118	785.156	82.7673	785.156	82.9875	785.156	81.5461	785.156	81.9821	785.156	80.1974	785.156	81.2741	785.156	78.9377	785.156	80.3255	785.156	78.0426	785.156	79.2648	785.156	77.3801	785.156	78.1629	785.156	76.4618	785.156	76.2883	785.156	75.3405	785.156	73.1985	785.156	74.3456	785.156	69.2374	785.156	72.357	785.156	68.2317	785.156	64.3905	785.156	70.4178	785.156	68.0699	785.156	73.0542	785.156	75.2098	785.156	75.4528	785.156	77.2224	785.156	76.998
811.523	85.3845	811.523	85.4041	811.523	85.3686	811.523	85.3521	811.523	85.3184	811.523	85.0944	811.523	85.177	811.523	84.6305	811.523	84.9683	811.523	84.0616	811.523	84.7635	811.523	83.358	811.523	84.4487	811.523	82.578	811.523	83.7976	811.523	82.1248	811.523	83.0716	811.523	82.0989	811.523	82.6958	811.523	82.0068	811.523	82.0456	811.523	81.3583	811.523	80.2515	811.523	79.8984	811.523	77.4446	811.523	77.2771	811.523	74.869	811.523	72.5822	811.523	72.6089	811.523	69.1965	811.523	71.7151	811.523	72.9107	811.523	74.5226	811.523	76.1966	811.523	77.3622	811.523	77.9107
840.82	84.8201	840.82	84.93	840.82	84.5974	840.82	84.8173	840.82	84.2612	840.82	84.4063	840.82	83.8106	840.82	83.889	840.82	83.1477	840.82	83.3283	840.82	82.0367	840.82	82.3541	840.82	80.5824	840.82	80.7486	840.82	79.4973	840.82	78.7699	840.82	79.2668	840.82	77.2424	840.82	79.6686	840.82	77.2388	840.82	80.2097	840.82	77.6654	840.82	80.1315	840.82	76.85	840.82	78.7299	840.82	74.2469	840.82	75.4325	840.82	71.0948	840.82	71.0378	840.82	70.8328	840.82	70.978	840.82	72.3594	840.82	72.87	840.82	73.5659	840.82	73.7112	840.82	73.9291
870.117	86.5279	870.117	86.3582	870.117	86.5399	870.117	86.0031	870.117	86.5045	870.117	85.4619	870.117	86.3789	870.117	84.847	870.117	86.026	870.117	84.4056	870.117	85.4736	870.117	84.1728	870.117	84.9361	870.117	83.9079	870.117	84.433	870.117	83.5107	870.117	83.6473	870.117	82.9418	870.117	82.6308	870.117	82.0094	870.117	81.8203	870.117	80.8494	870.117	80.8203	870.117	79.5925	870.117	79.0555	870.117	77.7907	870.117	76.8406	870.117	75.1931	870.117	75.2297	870.117	74.4368	870.117	75.9243	870.117	76.3533	870.117	78.0542	870.117	78.2964	870.117	79.5429	870.117	79.5898
900.879	86.4542	900.879	86.6889	900.879	85.8635	900.879	86.4707	900.879	85.1521	900.879	86.1223	900.879	84.4604	900.879	85.8857	900.879	83.7456	900.879	85.285	900.879	82.7303	900.879	83.9466	900.879	81.4494	900.879	82.2596	900.879	80.4712	900.879	80.6244	900.879	80.1645	900.879	79.3255	900.879	80.0413	900.879	79.1523	900.879	79.8253	900.879	79.9462	900.879	79.6199	900.879	79.7847	900.879	78.4721	900.879	77.2966	900.879	74.5551	900.879	71.6276	900.879	69.0791	900.879	66.3972	900.879	74.5294	900.879	73.4989	900.879	77.341	900.879	77.9102	900.879	78.7559	900.879	79.3488
933.105	86.8022	933.105	86.6701	933.105	86.8814	933.105	86.6991	933.105	86.6783	933.105	86.5813	933.105	86.1419	933.105	85.9585	933.105	85.3793	933.105	85.2102	933.105	84.5249	933.105	84.9391	933.105	83.6306	933.105	84.5513	933.105	82.4657	933.105	83.3488	933.105	81.0115	933.105	82.3506	933.105	80.7451	933.105	81.9265	933.105	81.2787	933.105	80.5933	933.105	80.9413	933.105	79.0701	933.105	79.7293	933.105	77.5235	933.105	76.6625	933.105	73.3632	933.105	70.5511	933.105	67.8242	933.105	69.9735	933.105	71.8605	933.105	73.2671	933.105	74.553	933.105	74.6488	933.105	74.9693
965.332	87.7918	965.332	87.8478	965.332	87.325	965.332	87.3723	965.332	86.7806	965.332	86.7584	965.332	86.3034	965.332	86.3187	965.332	85.6633	965.332	85.5796	965.332	84.6368	965.332	84.4046	965.332	83.3248	965.332	83.5148	965.332	81.8488	965.332	82.5573	965.332	80.7263	965.332	81.5211	965.332	80.2926	965.332	81.7371	965.332	80.3052	965.332	81.6598	965.332	79.6392	965.332	79.7273	965.332	78.2304	965.332	76.3602	965.332	75.756	965.332	72.6963	965.332	68.5606	965.332	70.6255	965.332	73.1986	965.332	75.8405	965.332	78.5539	965.332	79.4209	965.332	80.3368	965.332	80.4577
1,000.49	86.2352	1,000.49	86.1252	1,000.49	86.052	1,000.49	85.9769	1,000.49	85.5061	1,000.49	85.6077	1,000.49	85.05	1,000.49	84.9755	1,000.49	84.698	1,000.49	84.5615	1,000.49	83.8405	1,000.49	84.2825	1,000.49	82.597	1,000.49	83.8032	1,000.49	81.1705	1,000.49	83.3116	1,000.49	78.7195	1,000.49	82.7572	1,000.49	77.4252	1,000.49	82.42	1,000.49	80.1347	1,000.49	81.808	1,000.49	80.8967	1,000.49	81.0141	1,000.49	80.0638	1,000.49	79.8177	1,000.49	78.5627	1,000.49	76.3609	1,000.49	74.35	1,000.49	68.2239	1,000.49	68.5391	1,000.49	60.0046	1,000.49	73.5616	1,000.49	71.7761	1,000.49	75.5119	1,000.49	75.2478
1,035.64	86.695	1,035.64	86.6292	1,035.64	86.6034	1,035.64	86.5205	1,035.64	86.2298	1,035.64	86.1288	1,035.64	85.6171	1,035.64	85.4742	1,035.64	84.7892	1,035.64	84.7754	1,035.64	84.1546	1,035.64	83.8119	1,035.64	83.9239	1,035.64	82.6565	1,035.64	83.4615	1,035.64	81.735	1,035.64	82.087	1,035.64	80.4656	1,035.64	79.8363	1,035.64	79.2744	1,035.64	79.0389	1,035.64	80.2956	1,035.64	79.3824	1,035.64	80.8881	1,035.64	78.5092	1,035.64	79.655	1,035.64	76.4412	1,035.64	77.487	1,035.64	72.6865	1,035.64	76.1222	1,035.64	71.074	1,035.64	74.7471	1,035.64	75.3126	1,035.64	75.073	1,035.64	76.3047	1,035.64	75.8222
1,072.27	86.679	1,072.27	86.3986	1,072.27	86.6815	1,072.27	85.9989	1,072.27	86.1905	1,072.27	85.6911	1,072.27	85.2605	1,072.27	85.1709	1,072.27	84.5165	1,072.27	84.2559	1,072.27	83.7148	1,072.27	83.1102	1,072.27	82.2769	1,072.27	82.0212	1,072.27	80.6669	1,072.27	81.3426	1,072.27	78.881	1,072.27	80.5341	1,072.27	76.8606	1,072.27	80.265	1,072.27	76.8348	1,072.27	80.0388	1,072.27	76.6288	1,072.27	79.0103	1,072.27	76.5843	1,072.27	77.8403	1,072.27	75.4215	1,072.27	75.0593	1,072.27	69.7537	1,072.27	69.719	1,072.27	61.5778	1,072.27	69.1693	1,072.27	73.2278	1,072.27	73.5329	1,072.27	76.1608	1,072.27	75.2846
1,108.89	86.6708	1,108.89	86.7577	1,108.89	86.3506	1,108.89	86.3162	1,108.89	85.7318	1,108.89	85.4378	1,108.89	84.857	1,108.89	84.5497	1,108.89	83.7525	1,108.89	83.0814	1,108.89	82.5801	1,108.89	81.4203	1,108.89	81.5801	1,108.89	80.2183	1,108.89	80.6137	1,108.89	78.7776	1,108.89	78.8195	1,108.89	78.2959	1,108.89	76.5341	1,108.89	78.757	1,108.89	76.0655	1,108.89	78.8791	1,108.89	77.2029	1,108.89	77.7663	1,108.89	76.7024	1,108.89	75.9226	1,108.89	75.5369	1,108.89	72.5934	1,108.89	71.3562	1,108.89	69.847	1,108.89	71.2857	1,108.89	72.4986	1,108.89	75.4014	1,108.89	75.3297	1,108.89	76.8519	1,108.89	77.4064
1,148.44	85.5764	1,148.44	85.1832	1,148.44	85.6905	1,148.44	85.1454	1,148.44	85.5267	1,148.44	84.877	1,148.44	84.7611	1,148.44	83.8178	1,148.44	83.3949	1,148.44	82.8351	1,148.44	82.6324	1,148.44	81.7067	1,148.44	82.1196	1,148.44	79.8448	1,148.44	80.7979	1,148.44	78.6101	1,148.44	79.0114	1,148.44	77.2092	1,148.44	75.7094	1,148.44	76.9859	1,148.44	74.5961	1,148.44	78.2178	1,148.44	76.1825	1,148.44	78.7229	1,148.44	76.301	1,148.44	77.9362	1,148.44	74.341	1,148.44	73.2866	1,148.44	68.8111	1,148.44	67.7551	1,148.44	62.138	1,148.44	70.6247	1,148.44	72.0733	1,148.44	73.9074	1,148.44	75.8464	1,148.44	75.3094
1,189.45	85.4987	1,189.45	85.4111	1,189.45	86.2287	1,189.45	85.3706	1,189.45	85.8568	1,189.45	84.5263	1,189.45	85.098	1,189.45	84.0885	1,189.45	84.5976	1,189.45	83.6431	1,189.45	83.24	1,189.45	82.8171	1,189.45	81.7058	1,189.45	81.8611	1,189.45	80.944	1,189.45	80.3754	1,189.45	80.2415	1,189.45	76.666	1,189.45	78.7914	1,189.45	72.1478	1,189.45	75.5143	1,189.45	76.5021	1,189.45	74.8148	1,189.45	78.3577	1,189.45	75.2538	1,189.45	77.6177	1,189.45	74.7363	1,189.45	75.4305	1,189.45	70.3309	1,189.45	68.8565	1,189.45	63.4172	1,189.45	69.5007	1,189.45	70.644	1,189.45	73.4557	1,189.45	73.5903	1,189.45	75.266
1,230.47	85.656	1,230.47	85.1081	1,230.47	85.3473	1,230.47	84.5885	1,230.47	85.1553	1,230.47	84.4537	1,230.47	84.5665	1,230.47	83.7016	1,230.47	82.9244	1,230.47	83.0876	1,230.47	81.6798	1,230.47	82.3451	1,230.47	81.2063	1,230.47	80.8806	1,230.47	79.7725	1,230.47	78.7655	1,230.47	79.0711	1,230.47	77.2694	1,230.47	77.5887	1,230.47	74.288	1,230.47	75.23	1,230.47	74.1514	1,230.47	74.5084	1,230.47	77.2321	1,230.47	74.9038	1,230.47	77.3824	1,230.47	74.3209	1,230.47	72.2784	1,230.47	69.2318	1,230.47	65.2084	1,230.47	58.235	1,230.47	67.6793	1,230.47	66.9692	1,230.47	74.2478	1,230.47	72.1478	1,230.47	74.038
1,274.41	86.2338	1,274.41	86.5314	1,274.41	86.0316	1,274.41	86.5646	1,274.41	85.4765	1,274.41	85.9052	1,274.41	85.0713	1,274.41	84.8581	1,274.41	84.6748	1,274.41	83.7817	1,274.41	83.8798	1,274.41	83.0233	1,274.41	83.2796	1,274.41	81.8873	1,274.41	82.3607	1,274.41	81.3349	1,274.41	80.4647	1,274.41	80.6784	1,274.41	78.0115	1,274.41	77.2054	1,274.41	77.028	1,274.41	71.6658	1,274.41	75.0946	1,274.41	74.1406	1,274.41	75.1659	1,274.41	74.8863	1,274.41	74.5294	1,274.41	72.6397	1,274.41	70.6573	1,274.41	65.8568	1,274.41	58.0573	1,274.41	66.4496	1,274.41	68.6685	1,274.41	73.4488	1,274.41	73.5669	1,274.41	74.7682
1,319.82	86.4857	1,319.82	86.7405	1,319.82	85.8485	1,319.82	86.0457	1,319.82	85.7012	1,319.82	85.4959	1,319.82	85.0793	1,319.82	84.6273	1,319.82	83.8755	1,319.82	83.0942	1,319.82	83.0162	1,319.82	81.6913	1,319.82	81.932	1,319.82	81.3078	1,319.82	79.8883	1,319.82	80.9765	1,319.82	79.227	1,319.82	79.6669	1,319.82	79.5626	1,319.82	77.0903	1,319.82	77.0217	1,319.82	73.5894	1,319.82	76.4601	1,319.82	73.3928	1,319.82	77.0888	1,319.82	74.728	1,319.82	75.8487	1,319.82	72.7311	1,319.82	72.9658	1,319.82	66.1043	1,319.82	65.5382	1,319.82	63.2607	1,319.82	67.818	1,319.82	73.7145	1,319.82	72.3624	1,319.82	74.233
1,366.7	86.839	1,366.7	86.7602	1,366.7	86.1246	1,366.7	86.4936	1,366.7	85.5394	1,366.7	85.3011	1,366.7	85.4897	1,366.7	83.9276	1,366.7	84.0479	1,366.7	83.1765	1,366.7	82.1981	1,366.7	82.1037	1,366.7	81.606	1,366.7	81.0968	1,366.7	80.625	1,366.7	79.1083	1,366.7	80.7284	1,366.7	76.2416	1,366.7	79.2805	1,366.7	75.9072	1,366.7	74.0197	1,366.7	73.8683	1,366.7	74.1809	1,366.7	71.7346	1,366.7	77.2516	1,366.7	76.2963	1,366.7	77.8088	1,366.7	76.6892	1,366.7	74.3538	1,366.7	70.2197	1,366.7	63.471	1,366.7	60.6073	1,366.7	67.8724	1,366.7	70.9606	1,366.7	73.138	1,366.7	74.3234
1,413.57	85.7955	1,413.57	85.8034	1,413.57	85.3638	1,413.57	85.2116	1,413.57	85.0489	1,413.57	84.7788	1,413.57	84.2244	1,413.57	84.4853	1,413.57	82.748	1,413.57	83.5081	1,413.57	81.5443	1,413.57	81.8585	1,413.57	80.5048	1,413.57	79.6423	1,413.57	78.5689	1,413.57	77.7102	1,413.57	78.3437	1,413.57	78.3242	1,413.57	78.4955	1,413.57	78.1617	1,413.57	75.5147	1,413.57	74.0309	1,413.57	70.4097	1,413.57	70.6225	1,413.57	74.6087	1,413.57	71.0553	1,413.57	74.832	1,413.57	74.1387	1,413.57	72.376	1,413.57	71.1338	1,413.57	61.5118	1,413.57	49.3669	1,413.57	63.6307	1,413.57	68.2482	1,413.57	72.4528	1,413.57	74.2287
1,463.38	85.4919	1,463.38	85.2127	1,463.38	85.3176	1,463.38	84.9049	1,463.38	84.6464	1,463.38	84.9062	1,463.38	84.0662	1,463.38	84.3309	1,463.38	83.0935	1,463.38	83.5298	1,463.38	82.7099	1,463.38	82.4722	1,463.38	81.1667	1,463.38	81.1334	1,463.38	78.9942	1,463.38	80.4455	1,463.38	77.9358	1,463.38	78.7628	1,463.38	75.6336	1,463.38	76.922	1,463.38	75.0329	1,463.38	74.6133	1,463.38	70.1433	1,463.38	71.5083	1,463.38	64.4676	1,463.38	73.0645	1,463.38	68.6872	1,463.38	74.0006	1,463.38	71.3761	1,463.38	71.4154	1,463.38	67.5295	1,463.38	64.9321	1,463.38	66.6543	1,463.38	66.0035	1,463.38	71.7688	1,463.38	68.1843
1,516.11	84.5538	1,516.11	84.8588	1,516.11	84.7127	1,516.11	84.2534	1,516.11	84.1169	1,516.11	84.0898	1,516.11	83.1387	1,516.11	83.7051	1,516.11	82.7072	1,516.11	81.8285	1,516.11	81.9865	1,516.11	81.0485	1,516.11	80.1131	1,516.11	79.4913	1,516.11	78.0113	1,516.11	77.0799	1,516.11	77.0701	1,516.11	76.3284	1,516.11	74.9518	1,516.11	74.1207	1,516.11	74.8314	1,516.11	74.6587	1,516.11	70.2521	1,516.11	72.3896	1,516.11	63.051	1,516.11	73.6661	1,516.11	72.0322	1,516.11	73.1738	1,516.11	74.5691	1,516.11	72.183	1,516.11	70.8032	1,516.11	63.1139	1,516.11	60.9183	1,516.11	57.9629	1,516.11	67.5585	1,516.11	69.1245
1,568.85	83.9895	1,568.85	83.8792	1,568.85	83.7499	1,568.85	83.044	1,568.85	83.3218	1,568.85	82.6979	1,568.85	82.2997	1,568.85	80.9701	1,568.85	81.2758	1,568.85	78.6803	1,568.85	80.4267	1,568.85	78.4988	1,568.85	79.788	1,568.85	76.7084	1,568.85	79.0188	1,568.85	76.3445	1,568.85	77.101	1,568.85	75.2032	1,568.85	75.6654	1,568.85	73.3661	1,568.85	73.4815	1,568.85	72.3148	1,568.85	71.4644	1,568.85	70.0386	1,568.85	67.4761	1,568.85	73.3994	1,568.85	72.4769	1,568.85	73.5509	1,568.85	72.7526	1,568.85	72.405	1,568.85	69.4147	1,568.85	68.0606	1,568.85	64.7121	1,568.85	60.869	1,568.85	67.7714	1,568.85	61.5009
1,624.51	83.8525	1,624.51	83.5546	1,624.51	82.9007	1,624.51	83.5436	1,624.51	83.0598	1,624.51	82.7425	1,624.51	81.959	1,624.51	80.9399	1,624.51	82.1505	1,624.51	79.9459	1,624.51	81.3249	1,624.51	79.2547	1,624.51	79.3622	1,624.51	78.8162	1,624.51	79.8857	1,624.51	78.8662	1,624.51	76.6031	1,624.51	78.1944	1,624.51	74.0094	1,624.51	74.6879	1,624.51	72.4119	1,624.51	68.3557	1,624.51	73.0065	1,624.51	67.5775	1,624.51	72.0359	1,624.51	71.1255	1,624.51	70.5646	1,624.51	74.003	1,624.51	74.0983	1,624.51	74.2056	1,624.51	68.664	1,624.51	66.1859	1,624.51	65.6511	1,624.51	63.0217	1,624.51	63.5874	1,624.51	48.4625
1,681.64	85.0711	1,681.64	85.0653	1,681.64	84.9873	1,681.64	85.3195	1,681.64	84.6073	1,681.64	83.6871	1,681.64	83.6597	1,681.64	82.7277	1,681.64	82.4918	1,681.64	81.3174	1,681.64	80.8084	1,681.64	79.8321	1,681.64	79.3523	1,681.64	80.5661	1,681.64	78.4552	1,681.64	78.2848	1,681.64	78.0057	1,681.64	77.572	1,681.64	78.1543	1,681.64	75.4403	1,681.64	75.2305	1,681.64	75.5711	1,681.64	72.2014	1,681.64	68.2615	1,681.64	67.8009	1,681.64	70.7326	1,681.64	72.5541	1,681.64	73.0416	1,681.64	73.1893	1,681.64	74.4864	1,681.64	69.3222	1,681.64	67.6632	1,681.64	59.1766	1,681.64	67.0964	1,681.64	59.5927	1,681.64	66.2505
1,741.7	85.8169	1,741.7	85.6404	1,741.7	85.1211	1,741.7	84.8748	1,741.7	83.5953	1,741.7	84.2369	1,741.7	82.3124	1,741.7	83.5882	1,741.7	82.2747	1,741.7	81.132	1,741.7	79.318	1,741.7	79.5158	1,741.7	78.3435	1,741.7	76.2281	1,741.7	78.699	1,741.7	78.609	1,741.7	77.4109	1,741.7	76.2415	1,741.7	77.3147	1,741.7	78.3452	1,741.7	76.0227	1,741.7	75.5576	1,741.7	72.809	1,741.7	67.9371	1,741.7	63.8446	1,741.7	68.6223	1,741.7	72.5299	1,741.7	70.0134	1,741.7	74.161	1,741.7	71.1123	1,741.7	70.3559	1,741.7	69.1688	1,741.7	63.865	1,741.7	64.8537	1,741.7	60.9538	1,741.7	67.1068
1,803.22	85.5302	1,803.22	85.2792	1,803.22	85.3332	1,803.22	85.0601	1,803.22	83.8274	1,803.22	84.1087	1,803.22	83.3006	1,803.22	82.4373	1,803.22	81.366	1,803.22	83.3858	1,803.22	78.6209	1,803.22	80.5098	1,803.22	79.4331	1,803.22	79.3994	1,803.22	77.4246	1,803.22	77.6235	1,803.22	76.5053	1,803.22	76.7855	1,803.22	75.4081	1,803.22	77.1331	1,803.22	77.0417	1,803.22	77.5858	1,803.22	77.0987	1,803.22	73.1348	1,803.22	75.9823	1,803.22	70.2486	1,803.22	71.5298	1,803.22	70.9317	1,803.22	75.3848	1,803.22	73.8914	1,803.22	70.716	1,803.22	70.3618	1,803.22	64.0595	1,803.22	64.0323	1,803.22	67.2963	1,803.22	65.9849
1,866.21	84.5828	1,866.21	84.9733	1,866.21	84.8083	1,866.21	85.1438	1,866.21	84.8444	1,866.21	84.2194	1,866.21	83.7476	1,866.21	82.1057	1,866.21	80.9813	1,866.21	81.563	1,866.21	80.9278	1,866.21	79.7508	1,866.21	78.4392	1,866.21	78.4587	1,866.21	76.2625	1,866.21	78.7977	1,866.21	75.2192	1,866.21	79.3923	1,866.21	74.3083	1,866.21	76.7049	1,866.21	77.5121	1,866.21	74.1193	1,866.21	76.7857	1,866.21	75.7967	1,866.21	73.1106	1,866.21	69.927	1,866.21	73.1516	1,866.21	74.2194	1,866.21	73.3928	1,866.21	74.6355	1,866.21	73.2506	1,866.21	68.5666	1,866.21	69.8666	1,866.21	65.6906	1,866.21	69.869	1,866.21	68.2633
1,932.13	85.6721	1,932.13	85.5286	1,932.13	85.5969	1,932.13	84.9745	1,932.13	84.9012	1,932.13	84.47	1,932.13	83.8686	1,932.13	83.8395	1,932.13	83.0731	1,932.13	82.3976	1,932.13	81.4379	1,932.13	80.5846	1,932.13	79.4818	1,932.13	78.6855	1,932.13	77.9605	1,932.13	78.5066	1,932.13	76.7014	1,932.13	77.6013	1,932.13	76.0625	1,932.13	75.1192	1,932.13	73.9782	1,932.13	74.6717	1,932.13	74.7668	1,932.13	73.3361	1,932.13	72.511	1,932.13	70.5999	1,932.13	70.2405	1,932.13	72.7447	1,932.13	72.4117	1,932.13	72.7381	1,932.13	70.8116	1,932.13	68.3694	1,932.13	64.3543	1,932.13	62.5177	1,932.13	61.6073	1,932.13	68.5492
1,999.51	87.2533	1,999.51	86.9153	1,999.51	87.0734	1,999.51	86.6246	1,999.51	86.6577	1,999.51	85.8703	1,999.51	85.8465	1,999.51	85.0733	1,999.51	84.5948	1,999.51	83.97	1,999.51	83.5897	1,999.51	81.9128	1,999.51	81.8697	1,999.51	79.7387	1,999.51	80.9943	1,999.51	78.8173	1,999.51	79.3121	1,999.51	77.6499	1,999.51	77.2736	1,999.51	76.3151	1,999.51	75.1986	1,999.51	75.8182	1,999.51	75.9538	1,999.51	74.9455	1,999.51	73.5033	1,999.51	71.9461	1,999.51	72.0553	1,999.51	71.9135	1,999.51	74.0977	1,999.51	73.1633	1,999.51	73.344	1,999.51	69.8029	1,999.51	68.3734	1,999.51	61.6305	1,999.51	66.0634	1,999.51	67.469
2,069.82	87.5852	2,069.82	87.4156	2,069.82	87.1904	2,069.82	86.9733	2,069.82	86.6733	2,069.82	86.1711	2,069.82	85.8821	2,069.82	85.1641	2,069.82	84.7555	2,069.82	84.0424	2,069.82	83.3231	2,069.82	82.3303	2,069.82	81.8668	2,069.82	79.9584	2,069.82	80.7313	2,069.82	78.0792	2,069.82	79.3051	2,069.82	77.6435	2,069.82	77.0708	2,069.82	76.1763	2,069.82	75.3109	2,069.82	74.5996	2,069.82	74.7737	2,069.82	74.2192	2,069.82	73.2153	2,069.82	71.5016	2,069.82	70.7723	2,069.82	70.512	2,069.82	73.3225	2,069.82	72.5249	2,069.82	72.4009	2,069.82	70.5968	2,069.82	65.008	2,069.82	58.7803	2,069.82	65.4718	2,069.82	67.3812
2,143.07	86.8446	2,143.07	86.8926	2,143.07	86.579	2,143.07	86.4822	2,143.07	85.794	2,143.07	85.7576	2,143.07	84.8344	2,143.07	84.8339	2,143.07	83.5108	2,143.07	83.8429	2,143.07	82.3826	2,143.07	82.511	2,143.07	80.6248	2,143.07	80.27	2,143.07	79.0655	2,143.07	78.9088	2,143.07	77.689	2,143.07	77.4134	2,143.07	76.6505	2,143.07	75.3072	2,143.07	74.2102	2,143.07	73.7734	2,143.07	73.6926	2,143.07	73.9231	2,143.07	72.6636	2,143.07	72.7672	2,143.07	68.8411	2,143.07	70.2468	2,143.07	71.622	2,143.07	74.3721	2,143.07	71.5158	2,143.07	71.8156	2,143.07	64.6957	2,143.07	64.7567	2,143.07	61.8127	2,143.07	67.6443
2,219.24	86.843	2,219.24	86.6138	2,219.24	86.3551	2,219.24	86.2608	2,219.24	85.5734	2,219.24	85.7637	2,219.24	84.4135	2,219.24	84.9237	2,219.24	83.2191	2,219.24	83.9617	2,219.24	82.0753	2,219.24	81.9655	2,219.24	80.5833	2,219.24	80.8687	2,219.24	78.6405	2,219.24	79.1371	2,219.24	77.4557	2,219.24	78.5829	2,219.24	75.3182	2,219.24	75.8978	2,219.24	73.7468	2,219.24	73.6925	2,219.24	73.1714	2,219.24	74.5778	2,219.24	72.7951	2,219.24	72.7066	2,219.24	68.2233	2,219.24	70.1698	2,219.24	71.8706	2,219.24	71.9736	2,219.24	71.8953	2,219.24	71.3265	2,219.24	66.1044	2,219.24	65.1331	2,219.24	65.6555	2,219.24	65.6021
2,296.88	85.1996	2,296.88	85.3247	2,296.88	84.8381	2,296.88	84.7678	2,296.88	84.3168	2,296.88	83.823	2,296.88	82.8208	2,296.88	82.3419	2,296.88	81.4169	2,296.88	81.0079	2,296.88	80.3026	2,296.88	80.7931	2,296.88	78.8596	2,296.88	78.9221	2,296.88	77.3046	2,296.88	77.764	2,296.88	75.5823	2,296.88	75.5449	2,296.88	74.6594	2,296.88	74.7347	2,296.88	73.2412	2,296.88	72.501	2,296.88	70.759	2,296.88	72.5489	2,296.88	70.3731	2,296.88	70.3762	2,296.88	68.1633	2,296.88	67.7962	2,296.88	64.8645	2,296.88	69.446	2,296.88	70.9609	2,296.88	68.4709	2,296.88	66.575	2,296.88	64.7236	2,296.88	60.0896	2,296.88	68.1458
2,378.91	84.8736	2,378.91	84.8444	2,378.91	84.7617	2,378.91	84.405	2,378.91	84.0209	2,378.91	83.2604	2,378.91	83.2496	2,378.91	82.1804	2,378.91	81.8703	2,378.91	80.2847	2,378.91	80.5647	2,378.91	78.3891	2,378.91	79.2154	2,378.91	77.1895	2,378.91	77.927	2,378.91	75.8757	2,378.91	75.8343	2,378.91	73.429	2,378.91	73.6546	2,378.91	72.1497	2,378.91	74.0132	2,378.91	70.366	2,378.91	72.4102	2,378.91	69.8654	2,378.91	72.601	2,378.91	69.3845	2,378.91	69.6837	2,378.91	66.3163	2,378.91	67.1725	2,378.91	70.6013	2,378.91	68.7474	2,378.91	68.5792	2,378.91	68.0513	2,378.91	63.6996	2,378.91	65.8159	2,378.91	65.2776
2,462.4	86.5295	2,462.4	86.4312	2,462.4	86.4489	2,462.4	85.9652	2,462.4	85.6718	2,462.4	85.0004	2,462.4	84.7774	2,462.4	84.0408	2,462.4	83.4481	2,462.4	82.5034	2,462.4	81.8298	2,462.4	81.0306	2,462.4	80.0067	2,462.4	79.2597	2,462.4	78.6889	2,462.4	77.8849	2,462.4	77.1621	2,462.4	75.8758	2,462.4	76.479	2,462.4	74.5787	2,462.4	74.4311	2,462.4	73.3883	2,462.4	73.1771	2,462.4	70.6502	2,462.4	73.1226	2,462.4	70.7712	2,462.4	71.1437	2,462.4	65.5848	2,462.4	68.7669	2,462.4	68.0031	2,462.4	70.9104	2,462.4	69.1358	2,462.4	68.3966	2,462.4	63.3428	2,462.4	69.3824	2,462.4	66.4052
2,548.83	86.4706	2,548.83	86.7498	2,548.83	85.7943	2,548.83	85.9655	2,548.83	85.3377	2,548.83	85.3726	2,548.83	83.9455	2,548.83	83.8343	2,548.83	82.8722	2,548.83	82.8592	2,548.83	81.226	2,548.83	81.515	2,548.83	79.042	2,548.83	80.3689	2,548.83	77.1662	2,548.83	77.5468	2,548.83	76.0343	2,548.83	76.5072	2,548.83	74.7574	2,548.83	74.181	2,548.83	72.8611	2,548.83	73.1042	2,548.83	72.5602	2,548.83	72.791	2,548.83	71.9021	2,548.83	72.0173	2,548.83	70.2897	2,548.83	70.4893	2,548.83	67.258	2,548.83	69.4346	2,548.83	69.7816	2,548.83	68.8556	2,548.83	61.877	2,548.83	68.2029	2,548.83	65.1942	2,548.83	69.0696
2,639.65	86.2082	2,639.65	86.2305	2,639.65	85.6464	2,639.65	85.8191	2,639.65	84.765	2,639.65	85.0113	2,639.65	83.5155	2,639.65	83.5211	2,639.65	82.2071	2,639.65	82.4034	2,639.65	81.0542	2,639.65	81.2169	2,639.65	79.492	2,639.65	79.8985	2,639.65	77.8315	2,639.65	77.7652	2,639.65	75.9633	2,639.65	76.4364	2,639.65	73.4375	2,639.65	74.6577	2,639.65	73.7702	2,639.65	73.1585	2,639.65	70.9289	2,639.65	71.9051	2,639.65	70.746	2,639.65	72.8178	2,639.65	70.2283	2,639.65	70.549	2,639.65	69.6091	2,639.65	69.6478	2,639.65	69.7065	2,639.65	69.9133	2,639.65	66.5867	2,639.65	60.8326	2,639.65	66.3414	2,639.65	66.0852
2,731.93	86.3434	2,731.93	86.088	2,731.93	85.9334	2,731.93	86.1622	2,731.93	85.0755	2,731.93	85.2892	2,731.93	84.2706	2,731.93	84.2222	2,731.93	83.1199	2,731.93	82.3061	2,731.93	81.4018	2,731.93	81.0348	2,731.93	80.0171	2,731.93	79.1395	2,731.93	78.4728	2,731.93	77.4759	2,731.93	77.4773	2,731.93	76.1897	2,731.93	75.9692	2,731.93	74.7388	2,731.93	74.8936	2,731.93	74.1962	2,731.93	71.2435	2,731.93	72.2133	2,731.93	68.787	2,731.93	71.9688	2,731.93	70.3471	2,731.93	70.0917	2,731.93	65.8409	2,731.93	68.0076	2,731.93	69.5841	2,731.93	69.0581	2,731.93	67.5498	2,731.93	67.8455	2,731.93	65.115	2,731.93	70.0068
2,828.61	87.0231	2,828.61	87.0905	2,828.61	87.2482	2,828.61	87.1824	2,828.61	86.3402	2,828.61	86.2751	2,828.61	85.8035	2,828.61	85.6606	2,828.61	84.5089	2,828.61	84.6258	2,828.61	83.0165	2,828.61	82.1427	2,828.61	81.2473	2,828.61	80.4286	2,828.61	79.5739	2,828.61	79.3196	2,828.61	78.4347	2,828.61	76.5485	2,828.61	77.3742	2,828.61	75.4476	2,828.61	74.7133	2,828.61	74.8689	2,828.61	73.2544	2,828.61	72.1296	2,828.61	72.7916	2,828.61	71.8392	2,828.61	71.7591	2,828.61	69.788	2,828.61	68.1781	2,828.61	69.3329	2,828.61	70.03	2,828.61	69.9215	2,828.61	67.8335	2,828.61	64.4561	2,828.61	68.9231	2,828.61	70.6741
2,928.22	88.2119	2,928.22	88.1903	2,928.22	87.9479	2,928.22	87.8275	2,928.22	87.3218	2,928.22	87.3593	2,928.22	86.7151	2,928.22	86.6273	2,928.22	85.6408	2,928.22	85.5482	2,928.22	84.2769	2,928.22	83.7491	2,928.22	82.6677	2,928.22	82.3276	2,928.22	80.5941	2,928.22	80.7541	2,928.22	78.7355	2,928.22	77.9651	2,928.22	77.1053	2,928.22	77.0876	2,928.22	75.0446	2,928.22	75.2299	2,928.22	75.1193	2,928.22	73.6228	2,928.22	73.8514	2,928.22	71.9983	2,928.22	73.4124	2,928.22	71.9619	2,928.22	70.0012	2,928.22	70.2474	2,928.22	70.0962	2,928.22	70.211	2,928.22	69.473	2,928.22	70.3681	2,928.22	68.7582	2,928.22	70.5734
3,030.76	88.3154	3,030.76	88.3156	3,030.76	88.0905	3,030.76	87.8259	3,030.76	87.7126	3,030.76	87.4257	3,030.76	86.8519	3,030.76	86.7688	3,030.76	85.9132	3,030.76	85.8365	3,030.76	84.5651	3,030.76	84.0848	3,030.76	82.6985	3,030.76	82.939	3,030.76	80.7987	3,030.76	80.0775	3,030.76	78.915	3,030.76	78.5439	3,030.76	77.754	3,030.76	76.8377	3,030.76	75.0396	3,030.76	74.8719	3,030.76	74.2111	3,030.76	73.0057	3,030.76	71.3014	3,030.76	72.2197	3,030.76	73.3278	3,030.76	72.0914	3,030.76	70.1246	3,030.76	69.9946	3,030.76	70.4922	3,030.76	71.3476	3,030.76	68.8826	3,030.76	67.0885	3,030.76	67.124	3,030.76	71.2582
3,137.7	87.7369	3,137.7	87.7538	3,137.7	87.305	3,137.7	87.4193	3,137.7	86.9267	3,137.7	87.1298	3,137.7	86.1977	3,137.7	86.4089	3,137.7	85.1468	3,137.7	84.8846	3,137.7	83.7888	3,137.7	83.8032	3,137.7	82.3323	3,137.7	82.0574	3,137.7	80.3075	3,137.7	80.1143	3,137.7	78.5483	3,137.7	78.0807	3,137.7	77.0104	3,137.7	76.9049	3,137.7	74.8365	3,137.7	74.4379	3,137.7	73.413	3,137.7	73.1275	3,137.7	71.1507	3,137.7	71.0753	3,137.7	71.6072	3,137.7	70.7318	3,137.7	69.9579	3,137.7	68.3169	3,137.7	70.4594	3,137.7	70.6273	3,137.7	68.904	3,137.7	65.1714	3,137.7	67.5417	3,137.7	69.4853
3,249.02	87.6604	3,249.02	87.5437	3,249.02	87.2907	3,249.02	87.2613	3,249.02	87.159	3,249.02	87.1171	3,249.02	86.6572	3,249.02	86.4461	3,249.02	85.6475	3,249.02	85.0621	3,249.02	84.3567	3,249.02	83.9395	3,249.02	82.8151	3,249.02	81.8097	3,249.02	80.7184	3,249.02	79.9542	3,249.02	79.2268	3,249.02	78.5608	3,249.02	76.5927	3,249.02	77.1423	3,249.02	75.8647	3,249.02	74.4981	3,249.02	74.3361	3,249.02	73.7129	3,249.02	72.8199	3,249.02	71.6	3,249.02	71.6655	3,249.02	71.6734	3,249.02	70.0326	3,249.02	68.0258	3,249.02	69.951	3,249.02	70.7695	3,249.02	69.1011	3,249.02	64.9911	3,249.02	66.3353	3,249.02	69.0677
3,363.28	88.5418	3,363.28	88.3299	3,363.28	88.7313	3,363.28	88.3615	3,363.28	88.1642	3,363.28	88.0931	3,363.28	87.7065	3,363.28	87.0348	3,363.28	86.5778	3,363.28	85.7872	3,363.28	85.6383	3,363.28	84.4524	3,363.28	83.8398	3,363.28	82.4125	3,363.28	82.1016	3,363.28	80.5961	3,363.28	80.392	3,363.28	78.9482	3,363.28	77.9365	3,363.28	76.5297	3,363.28	76.3325	3,363.28	74.875	3,363.28	74.2571	3,363.28	74.0328	3,363.28	72.973	3,363.28	72.3832	3,363.28	72.0667	3,363.28	72.7373	3,363.28	71.4457	3,363.28	68.6212	3,363.28	70.2059	3,363.28	70.417	3,363.28	69.613	3,363.28	64.5501	3,363.28	66.5063	3,363.28	70.4738
3,481.93	89.0056	3,481.93	89.0482	3,481.93	88.9105	3,481.93	88.9673	3,481.93	88.7313	3,481.93	88.7548	3,481.93	88.2031	3,481.93	88.1588	3,481.93	87.2537	3,481.93	87.1447	3,481.93	85.9728	3,481.93	85.4889	3,481.93	83.9997	3,481.93	83.4397	3,481.93	82.2293	3,481.93	81.5832	3,481.93	80.5948	3,481.93	79.7571	3,481.93	78.3827	3,481.93	77.6081	3,481.93	76.2585	3,481.93	75.8719	3,481.93	73.8132	3,481.93	73.731	3,481.93	72.2644	3,481.93	72.707	3,481.93	71.1974	3,481.93	72.6712	3,481.93	71.7389	3,481.93	70.2742	3,481.93	70.2766	3,481.93	72.0328	3,481.93	70.4763	3,481.93	65.5262	3,481.93	66.908	3,481.93	70.9745
3,604.98	89.419	3,604.98	89.5091	3,604.98	89.4493	3,604.98	89.3537	3,604.98	89.3431	3,604.98	89.0146	3,604.98	88.8583	3,604.98	88.2864	3,604.98	87.9611	3,604.98	87.3613	3,604.98	86.6343	3,604.98	85.9207	3,604.98	84.9399	3,604.98	83.9115	3,604.98	82.8691	3,604.98	81.9957	3,604.98	81.1567	3,604.98	80.3052	3,604.98	79.1065	3,604.98	77.47	3,604.98	77.3452	3,604.98	76.1007	3,604.98	75.1929	3,604.98	74.7504	3,604.98	74.6975	3,604.98	73.0822	3,604.98	72.1854	3,604.98	72.4887	3,604.98	72.2213	3,604.98	70.188	3,604.98	70.7306	3,604.98	72.4345	3,604.98	71.7338	3,604.98	64.6308	3,604.98	66.7496	3,604.98	70.8166
3,732.42	90.1468	3,732.42	90.3824	3,732.42	90.0449	3,732.42	90.2272	3,732.42	90.0009	3,732.42	89.6767	3,732.42	89.3902	3,732.42	89.2373	3,732.42	88.2935	3,732.42	87.7187	3,732.42	86.7453	3,732.42	86.185	3,732.42	85.182	3,732.42	84.2552	3,732.42	83.4512	3,732.42	82.6052	3,732.42	81.0683	3,732.42	80.4236	3,732.42	79.0802	3,732.42	77.8643	3,732.42	77.1974	3,732.42	76.6325	3,732.42	75.3716	3,732.42	74.6451	3,732.42	73.9982	3,732.42	73.8756	3,732.42	72.885	3,732.42	73.1996	3,732.42	72.8457	3,732.42	70.0656	3,732.42	69.4841	3,732.42	71.62	3,732.42	71.5264	3,732.42	65.5343	3,732.42	65.4431	3,732.42	69.5753
3,864.26	89.8393	3,864.26	89.6943	3,864.26	89.7791	3,864.26	89.5721	3,864.26	89.1851	3,864.26	89.2831	3,864.26	88.4384	3,864.26	88.4034	3,864.26	87.3366	3,864.26	87.0839	3,864.26	85.7532	3,864.26	85.6281	3,864.26	84.3575	3,864.26	83.8966	3,864.26	82.3345	3,864.26	81.8093	3,864.26	79.4755	3,864.26	79.3386	3,864.26	77.9287	3,864.26	78.2239	3,864.26	75.9376	3,864.26	75.909	3,864.26	74.7301	3,864.26	74.3856	3,864.26	73.3573	3,864.26	73.2325	3,864.26	70.8706	3,864.26	71.6965	3,864.26	70.6772	3,864.26	70.9466	3,864.26	68.0267	3,864.26	72.1702	3,864.26	70.6269	3,864.26	68.2312	3,864.26	62.6042	3,864.26	68.7801
4,000.49	89.299	4,000.49	88.9421	4,000.49	89.43	4,000.49	88.903	4,000.49	88.8238	4,000.49	88.5543	4,000.49	88.1895	4,000.49	87.3381	4,000.49	87.0789	4,000.49	86.3596	4,000.49	85.6673	4,000.49	84.6978	4,000.49	83.8968	4,000.49	82.81	4,000.49	81.8108	4,000.49	80.7965	4,000.49	79.7257	4,000.49	78.7653	4,000.49	78.4136	4,000.49	77.0199	4,000.49	75.5327	4,000.49	74.4306	4,000.49	74.567	4,000.49	73.0234	4,000.49	72.888	4,000.49	71.8552	4,000.49	70.6253	4,000.49	70.751	4,000.49	71.4938	4,000.49	70.3641	4,000.49	69.4543	4,000.49	71.0919	4,000.49	70.3991	4,000.49	65.1261	4,000.49	62.3769	4,000.49	69.3029
4,141.11	89.4138	4,141.11	89.4481	4,141.11	89.2007	4,141.11	89.0229	4,141.11	89.1249	4,141.11	88.3958	4,141.11	88.4653	4,141.11	88.11	4,141.11	87.6663	4,141.11	86.8573	4,141.11	86.0382	4,141.11	85.1794	4,141.11	84.0356	4,141.11	83.2115	4,141.11	81.6396	4,141.11	81.1377	4,141.11	79.8233	4,141.11	78.7727	4,141.11	78.3201	4,141.11	76.6505	4,141.11	75.7326	4,141.11	74.6267	4,141.11	74.0609	4,141.11	72.3866	4,141.11	72.8624	4,141.11	71.6277	4,141.11	71.2008	4,141.11	70.6388	4,141.11	70.9861	4,141.11	69.4853	4,141.11	69.0974	4,141.11	70.024	4,141.11	70.148	4,141.11	64.8884	4,141.11	61.9389	4,141.11	68.1602
4,287.6	89.1061	4,287.6	89.3471	4,287.6	89.0889	4,287.6	88.7163	4,287.6	88.8269	4,287.6	88.3523	4,287.6	88.3785	4,287.6	87.9297	4,287.6	87.0595	4,287.6	86.3058	4,287.6	85.7582	4,287.6	84.7976	4,287.6	84.087	4,287.6	82.722	4,287.6	81.9233	4,287.6	80.3677	4,287.6	80.2749	4,287.6	78.6274	4,287.6	77.7591	4,287.6	77.449	4,287.6	76.0798	4,287.6	73.8329	4,287.6	73.3333	4,287.6	72.284	4,287.6	71.4473	4,287.6	71.6847	4,287.6	71.5809	4,287.6	70.1818	4,287.6	70.2472	4,287.6	69.7444	4,287.6	67.7492	4,287.6	70.391	4,287.6	70.9302	4,287.6	65.6218	4,287.6	59.7689	4,287.6	66.5019
4,438.48	89.2528	4,438.48	88.9606	4,438.48	89.1902	4,438.48	89.1074	4,438.48	88.3596	4,438.48	88.2848	4,438.48	87.898	4,438.48	87.2954	4,438.48	86.753	4,438.48	86.174	4,438.48	85.0839	4,438.48	84.3959	4,438.48	83.9271	4,438.48	82.3995	4,438.48	81.9993	4,438.48	80.7445	4,438.48	79.4343	4,438.48	77.6805	4,438.48	77.5158	4,438.48	75.7893	4,438.48	75.3241	4,438.48	73.3357	4,438.48	73.075	4,438.48	71.3442	4,438.48	71.003	4,438.48	70.7145	4,438.48	72.163	4,438.48	68.7064	4,438.48	69.7329	4,438.48	70.3038	4,438.48	68.3453	4,438.48	68.6393	4,438.48	70.8407	4,438.48	67.041	4,438.48	58.4164	4,438.48	66.8706
4,595.21	88.2131	4,595.21	88.2375	4,595.21	87.9007	4,595.21	87.6552	4,595.21	87.6165	4,595.21	87.2473	4,595.21	86.5474	4,595.21	86.2125	4,595.21	86.1974	4,595.21	85.2355	4,595.21	85.1853	4,595.21	84.4953	4,595.21	83.0972	4,595.21	82.9311	4,595.21	80.7657	4,595.21	80.0957	4,595.21	79.1514	4,595.21	77.8668	4,595.21	76.3742	4,595.21	74.6326	4,595.21	74.8152	4,595.21	74.2413	4,595.21	72.5466	4,595.21	71.7696	4,595.21	70.9177	4,595.21	70.4173	4,595.21	69.6999	4,595.21	68.4921	4,595.21	68.4984	4,595.21	68.4	4,595.21	67.9277	4,595.21	67.8068	4,595.21	69.0611	4,595.21	66.9942	4,595.21	60.0625	4,595.21	67.2873
4,756.35	88.4411	4,756.35	88.4434	4,756.35	88.6588	4,756.35	87.5034	4,756.35	88.143	4,756.35	87.2412	4,756.35	87.7354	4,756.35	86.7093	4,756.35	86.7247	4,756.35	85.6248	4,756.35	85.6659	4,756.35	83.9016	4,756.35	84.11	4,756.35	81.7809	4,756.35	81.9043	4,756.35	79.3696	4,756.35	79.5338	4,756.35	77.9101	4,756.35	77.5977	4,756.35	76.5095	4,756.35	75.2973	4,756.35	73.367	4,756.35	73.7148	4,756.35	70.6013	4,756.35	71.4349	4,756.35	70.0382	4,756.35	70.2742	4,756.35	69.1482	4,756.35	68.5352	4,756.35	68.2257	4,756.35	68.1441	4,756.35	67.1272	4,756.35	69.1947	4,756.35	66.0077	4,756.35	61.159	4,756.35	65.3324
4,924.8	88.6718	4,924.8	88.4208	4,924.8	88.6771	4,924.8	88.5965	4,924.8	87.894	4,924.8	88.0614	4,924.8	87.6691	4,924.8	87.7585	4,924.8	86.7378	4,924.8	86.9435	4,924.8	85.4146	4,924.8	85.5679	4,924.8	84.0793	4,924.8	83.2413	4,924.8	82.2299	4,924.8	81.5444	4,924.8	79.8947	4,924.8	78.4313	4,924.8	77.826	4,924.8	76.8585	4,924.8	75.4493	4,924.8	74.2239	4,924.8	73.1479	4,924.8	72.1952	4,924.8	71.8332	4,924.8	69.5316	4,924.8	70.2266	4,924.8	68.2778	4,924.8	68.9068	4,924.8	69.4169	4,924.8	69.261	4,924.8	68.088	4,924.8	70.1678	4,924.8	68.1101	4,924.8	60.3267	4,924.8	64.6596
5,097.66	88.294	5,097.66	88.1758	5,097.66	87.8476	5,097.66	87.7013	5,097.66	87.7785	5,097.66	87.2155	5,097.66	87.0306	5,097.66	86.6802	5,097.66	86.6045	5,097.66	85.7275	5,097.66	85.6315	5,097.66	84.4934	5,097.66	83.8613	5,097.66	82.7843	5,097.66	81.7309	5,097.66	80.6632	5,097.66	79.9437	5,097.66	78.6614	5,097.66	77.19	5,097.66	75.0957	5,097.66	74.555	5,097.66	74.2904	5,097.66	72.6376	5,097.66	72.7802	5,097.66	71.0979	5,097.66	72.0721	5,097.66	69.7015	5,097.66	69.253	5,097.66	67.0179	5,097.66	69.0635	5,097.66	68.2034	5,097.66	67.6577	5,097.66	67.4995	5,097.66	67.1851	5,097.66	60.3873	5,097.66	63.9296
5,277.83	88.5744	5,277.83	88.4891	5,277.83	88.2943	5,277.83	87.9875	5,277.83	87.691	5,277.83	87.6243	5,277.83	87.2879	5,277.83	87.0235	5,277.83	86.5302	5,277.83	86.2171	5,277.83	85.3021	5,277.83	84.7601	5,277.83	83.9337	5,277.83	83.0542	5,277.83	81.6824	5,277.83	80.3072	5,277.83	78.8288	5,277.83	78.464	5,277.83	76.673	5,277.83	74.883	5,277.83	74.5091	5,277.83	72.9618	5,277.83	72.61	5,277.83	69.8997	5,277.83	70.3794	5,277.83	69.0018	5,277.83	67.7536	5,277.83	68.9696	5,277.83	67.7408	5,277.83	67.6608	5,277.83	68.3411	5,277.83	65.7931	5,277.83	66.6523	5,277.83	66.931	5,277.83	60.0629	5,277.83	62.5472
5,463.87	88.0793	5,463.87	87.9065	5,463.87	88.1008	5,463.87	87.6028	5,463.87	87.4827	5,463.87	86.9046	5,463.87	87.2195	5,463.87	86.8965	5,463.87	86.3389	5,463.87	85.8859	5,463.87	85.0619	5,463.87	84.8991	5,463.87	83.4909	5,463.87	82.9342	5,463.87	81.2091	5,463.87	81.3123	5,463.87	78.4438	5,463.87	78.483	5,463.87	76.5006	5,463.87	76.9458	5,463.87	73.9878	5,463.87	73.8548	5,463.87	71.4504	5,463.87	71.9243	5,463.87	70.5407	5,463.87	69.2915	5,463.87	67.0599	5,463.87	67.7717	5,463.87	67.2788	5,463.87	67.591	5,463.87	68.0719	5,463.87	67.3242	5,463.87	66.2921	5,463.87	67.4134	5,463.87	62.0492	5,463.87	61.1264
5,657.23	88.3332	5,657.23	88.1102	5,657.23	87.8877	5,657.23	87.6713	5,657.23	87.4949	5,657.23	87.1144	5,657.23	86.5342	5,657.23	86.6012	5,657.23	86.0801	5,657.23	85.3752	5,657.23	84.9616	5,657.23	83.9184	5,657.23	83.1388	5,657.23	81.4476	5,657.23	80.7283	5,657.23	79.4664	5,657.23	78.4496	5,657.23	75.9275	5,657.23	75.3159	5,657.23	73.3956	5,657.23	73.177	5,657.23	71.1166	5,657.23	71.0143	5,657.23	69.1052	5,657.23	68.5837	5,657.23	67.8553	5,657.23	67.8793	5,657.23	65.7702	5,657.23	65.6193	5,657.23	66.1938	5,657.23	67.2468	5,657.23	64.3934	5,657.23	64.8708	5,657.23	64.6307	5,657.23	58.8342	5,657.23	59.3148
5,856.45	87.687	5,856.45	87.5345	5,856.45	87.5939	5,856.45	86.7333	5,856.45	86.6481	5,856.45	86.0485	5,856.45	86.1507	5,856.45	85.5359	5,856.45	85.2173	5,856.45	84.8957	5,856.45	83.8653	5,856.45	83.6683	5,856.45	82.2358	5,856.45	82.5399	5,856.45	80.262	5,856.45	79.6108	5,856.45	76.8856	5,856.45	77.0212	5,856.45	74.1939	5,856.45	73.5261	5,856.45	72.1069	5,856.45	71.9478	5,856.45	70.2067	5,856.45	69.7314	5,856.45	67.9583	5,856.45	67.0453	5,856.45	65.684	5,856.45	67.1072	5,856.45	65.8298	5,856.45	66.3215	5,856.45	65.7402	5,856.45	65.3885	5,856.45	62.547	5,856.45	66.4162	5,856.45	59.3173	5,856.45	59.7357
6,062.99	88.4797	6,062.99	88.3436	6,062.99	88.0021	6,062.99	87.5512	6,062.99	86.9894	6,062.99	86.5046	6,062.99	86.0392	6,062.99	85.6349	6,062.99	85.2613	6,062.99	84.3352	6,062.99	83.6989	6,062.99	82.3514	6,062.99	81.8198	6,062.99	79.624	6,062.99	78.6798	6,062.99	76.8354	6,062.99	76.7386	6,062.99	74.0124	6,062.99	73.9	6,062.99	71.9999	6,062.99	71.1344	6,062.99	69.332	6,062.99	69.4412	6,062.99	66.9952	6,062.99	67.6004	6,062.99	64.3379	6,062.99	66.5407	6,062.99	63.8041	6,062.99	65.7774	6,062.99	63.946	6,062.99	64.8451	6,062.99	64.4124	6,062.99	63.6859	6,062.99	63.8545	6,062.99	60.021	6,062.99	57.794
6,276.86	87.4955	6,276.86	87.209	6,276.86	87.1034	6,276.86	86.3423	6,276.86	86.2395	6,276.86	84.98	6,276.86	84.9189	6,276.86	83.9933	6,276.86	83.8496	6,276.86	82.5358	6,276.86	82.2081	6,276.86	80.8435	6,276.86	80.0908	6,276.86	77.8954	6,276.86	77.521	6,276.86	75.5672	6,276.86	74.5845	6,276.86	72.6161	6,276.86	72.007	6,276.86	70.9857	6,276.86	68.3172	6,276.86	68.5621	6,276.86	66.8546	6,276.86	66.1115	6,276.86	64.5857	6,276.86	65.2012	6,276.86	62.6113	6,276.86	62.6838	6,276.86	62.6509	6,276.86	62.2209	6,276.86	64.771	6,276.86	63.2942	6,276.86	62.8537	6,276.86	63.5024	6,276.86	59.8704	6,276.86	56.4951
6,498.05	87.7433	6,498.05	87.5936	6,498.05	87.4558	6,498.05	87.1258	6,498.05	86.2182	6,498.05	85.8226	6,498.05	85.2855	6,498.05	84.7171	6,498.05	83.6196	6,498.05	83.1376	6,498.05	81.4155	6,498.05	80.4849	6,498.05	79.1134	6,498.05	77.9004	6,498.05	75.8197	6,498.05	74.8546	6,498.05	73.1028	6,498.05	72.1991	6,498.05	70.2544	6,498.05	69.3464	6,498.05	68.0274	6,498.05	66.8532	6,498.05	65.9543	6,498.05	65.415	6,498.05	62.6704	6,498.05	63.4948	6,498.05	62.0544	6,498.05	59.5767	6,498.05	62.1897	6,498.05	60.8075	6,498.05	61.2129	6,498.05	62.7595	6,498.05	61.3253	6,498.05	62.7957	6,498.05	58.7193	6,498.05	56.8124
6,726.56	87.3969	6,726.56	87.3486	6,726.56	86.8457	6,726.56	86.7741	6,726.56	86.0707	6,726.56	85.3974	6,726.56	84.5526	6,726.56	84.324	6,726.56	83.1899	6,726.56	81.903	6,726.56	80.7255	6,726.56	80.1736	6,726.56	78.0329	6,726.56	77.0599	6,726.56	74.8947	6,726.56	74.3559	6,726.56	71.6297	6,726.56	71.1727	6,726.56	69.5883	6,726.56	68.9922	6,726.56	66.3979	6,726.56	65.5857	6,726.56	65.0696	6,726.56	63.827	6,726.56	62.1842	6,726.56	61.5659	6,726.56	59.0332	6,726.56	60.3333	6,726.56	61.598	6,726.56	60.6509	6,726.56	62.9715	6,726.56	63.3116	6,726.56	62.0651	6,726.56	61.6911	6,726.56	59.2945	6,726.56	54.5399
6,963.87	86.9554	6,963.87	86.9497	6,963.87	86.8392	6,963.87	86.0622	6,963.87	85.6897	6,963.87	84.9028	6,963.87	84.4921	6,963.87	83.1934	6,963.87	82.6065	6,963.87	81.151	6,963.87	80.3472	6,963.87	78.1768	6,963.87	77.9593	6,963.87	75.3434	6,963.87	75.1712	6,963.87	72.0216	6,963.87	71.8551	6,963.87	69.93	6,963.87	68.7873	6,963.87	65.7736	6,963.87	66.6434	6,963.87	65.5273	6,963.87	65.3225	6,963.87	60.6301	6,963.87	59.5722	6,963.87	61.5768	6,963.87	60.5875	6,963.87	58.1846	6,963.87	59.1344	6,963.87	56.6376	6,963.87	58.9111	6,963.87	61.0365	6,963.87	60.4525	6,963.87	61.6441	6,963.87	57.1446	6,963.87	51.6468
7,209.96	86.431	7,209.96	86.1159	7,209.96	85.8479	7,209.96	85.6181	7,209.96	85.0142	7,209.96	84.3503	7,209.96	83.6186	7,209.96	83.0453	7,209.96	81.9154	7,209.96	80.7144	7,209.96	78.9903	7,209.96	78.484	7,209.96	76.2787	7,209.96	76.0158	7,209.96	72.8574	7,209.96	72.8248	7,209.96	70.3067	7,209.96	70.1475	7,209.96	67.8223	7,209.96	67.8561	7,209.96	65.9212	7,209.96	64.6853	7,209.96	62.1428	7,209.96	61.9709	7,209.96	62.3581	7,209.96	60.243	7,209.96	56.5983	7,209.96	59.8331	7,209.96	54.3727	7,209.96	60.0317	7,209.96	58.6495	7,209.96	62.5805	7,209.96	60.3423	7,209.96	60.4455	7,209.96	57.8144	7,209.96	46.238
7,464.84	85.8319	7,464.84	85.876	7,464.84	85.4245	7,464.84	85.3622	7,464.84	84.3113	7,464.84	84.2488	7,464.84	82.6976	7,464.84	82.7706	7,464.84	80.4841	7,464.84	80.2048	7,464.84	77.7256	7,464.84	77.8776	7,464.84	74.3372	7,464.84	74.594	7,464.84	72.0002	7,464.84	71.6523	7,464.84	69.0755	7,464.84	68.5364	7,464.84	66.7988	7,464.84	66.7132	7,464.84	63.8291	7,464.84	64.0374	7,464.84	62.3235	7,464.84	62.213	7,464.84	59.7531	7,464.84	58.6779	7,464.84	52.9485	7,464.84	48.9317	7,464.84	52.5971	7,464.84	54.9995	7,464.84	57.1034	7,464.84	60.8612	7,464.84	58.811	7,464.84	58.6666	7,464.84	58.6947	7,464.84	48.6598
7,727.05	85.386	7,727.05	85.2454	7,727.05	85.1854	7,727.05	84.7143	7,727.05	84.6031	7,727.05	83.009	7,727.05	83.0323	7,727.05	81.4428	7,727.05	80.7175	7,727.05	78.3119	7,727.05	77.4583	7,727.05	74.714	7,727.05	74.8598	7,727.05	71.4089	7,727.05	71.4873	7,727.05	69.2843	7,727.05	70.2895	7,727.05	67.4361	7,727.05	67.2306	7,727.05	65.5111	7,727.05	64.8844	7,727.05	61.9155	7,727.05	62.0519	7,727.05	62.2735	7,727.05	59.8898	7,727.05	54.6075	7,727.05	57.2768	7,727.05	49.2898	7,727.05	52.934	7,727.05	54.6734	7,727.05	56.2385	7,727.05	60.4242	7,727.05	58.9707	7,727.05	58.7827	7,727.05	57.6302	7,727.05	48.1773
7,999.51	85.2119	7,999.51	84.8885	7,999.51	84.971	7,999.51	84.5859	7,999.51	84.05	7,999.51	83.1973	7,999.51	82.2262	7,999.51	81.4491	7,999.51	79.9802	7,999.51	78.5781	7,999.51	76.7029	7,999.51	76.1229	7,999.51	74.0489	7,999.51	72.9535	7,999.51	71.984	7,999.51	71.1061	7,999.51	68.8666	7,999.51	68.7919	7,999.51	67.2916	7,999.51	66.4459	7,999.51	64.9689	7,999.51	65.2912	7,999.51	62.951	7,999.51	62.4632	7,999.51	61.0932	7,999.51	58.7783	7,999.51	54.0915	7,999.51	55.7756	7,999.51	53.8401	7,999.51	51.3362	7,999.51	52.6855	7,999.51	58.5976	7,999.51	55.9404	7,999.51	58.6163	7,999.51	54.6532	7,999.51	46.9938
8,282.23	85.0941	8,282.23	84.9109	8,282.23	84.7122	8,282.23	85.093	8,282.23	83.742	8,282.23	83.5426	8,282.23	81.5061	8,282.23	81.7826	8,282.23	78.6273	8,282.23	79.0178	8,282.23	74.9517	8,282.23	76.2998	8,282.23	72.6586	8,282.23	73.7559	8,282.23	70.2167	8,282.23	71.3114	8,282.23	69.3683	8,282.23	68.5713	8,282.23	65.1794	8,282.23	65.8807	8,282.23	63.8339	8,282.23	64.5075	8,282.23	60.3735	8,282.23	61.3903	8,282.23	60.039	8,282.23	58.1754	8,282.23	55.9099	8,282.23	56.5803	8,282.23	48.614	8,282.23	53.9795	8,282.23	50.6855	8,282.23	58.8375	8,282.23	57.7212	8,282.23	58.3745	8,282.23	54.3239	8,282.23	45.947
8,573.73	84.9362	8,573.73	85.1304	8,573.73	84.7395	8,573.73	85.12	8,573.73	83.7898	8,573.73	83.6482	8,573.73	81.3117	8,573.73	81.5094	8,573.73	78.3362	8,573.73	78.1644	8,573.73	74.7122	8,573.73	75.3016	8,573.73	72.653	8,573.73	72.4947	8,573.73	70.7943	8,573.73	69.8714	8,573.73	68.1318	8,573.73	66.7504	8,573.73	65.2154	8,573.73	63.9368	8,573.73	62.7368	8,573.73	61.9022	8,573.73	61.0332	8,573.73	59.9881	8,573.73	59.7186	8,573.73	56.5853	8,573.73	53.7439	8,573.73	53.3326	8,573.73	51.0171	8,573.73	49.0544	8,573.73	51.1402	8,573.73	55.34	8,573.73	54.5573	8,573.73	56.0507	8,573.73	52.9346	8,573.73	42.9572
8,876.95	85.1695	8,876.95	85.081	8,876.95	85.0935	8,876.95	84.968	8,876.95	83.9299	8,876.95	83.0893	8,876.95	81.6296	8,876.95	80.6703	8,876.95	78.6428	8,876.95	77.098	8,876.95	75.5508	8,876.95	73.9357	8,876.95	73.02	8,876.95	70.8843	8,876.95	70.3099	8,876.95	68.2853	8,876.95	67.5854	8,876.95	65.1552	8,876.95	64.3174	8,876.95	63.2912	8,876.95	61.7098	8,876.95	60.7691	8,876.95	59.8518	8,876.95	58.9914	8,876.95	58.7072	8,876.95	54.3063	8,876.95	52.1203	8,876.95	52.4822	8,876.95	52.1272	8,876.95	51.2669	8,876.95	52.372	8,876.95	53.7025	8,876.95	53.8497	8,876.95	52.7033	8,876.95	50.9918	8,876.95	44.2938
9,188.96	85.2591	9,188.96	85.1499	9,188.96	84.9754	9,188.96	85.1447	9,188.96	83.723	9,188.96	83.0145	9,188.96	81.1368	9,188.96	80.4118	9,188.96	77.7632	9,188.96	76.6852	9,188.96	74.4818	9,188.96	73.6168	9,188.96	71.7177	9,188.96	70.8269	9,188.96	68.9423	9,188.96	67.4868	9,188.96	65.0312	9,188.96	64.6271	9,188.96	62.4207	9,188.96	61.2528	9,188.96	59.9862	9,188.96	60.486	9,188.96	58.2858	9,188.96	58.5482	9,188.96	56.6112	9,188.96	54.2515	9,188.96	50.1959	9,188.96	51.9357	9,188.96	50.5858	9,188.96	47.9926	9,188.96	49.295	9,188.96	51.3243	9,188.96	50.2266	9,188.96	50.5423	9,188.96	46.4189	9,188.96	41.0051
9,514.16	85.4928	9,514.16	85.3791	9,514.16	85.3539	9,514.16	85.1775	9,514.16	83.7138	9,514.16	82.6435	9,514.16	80.9297	9,514.16	79.8704	9,514.16	77.6948	9,514.16	75.8702	9,514.16	74.3597	9,514.16	72.6403	9,514.16	72.2426	9,514.16	70.2718	9,514.16	70.6472	9,514.16	65.2247	9,514.16	66.9061	9,514.16	63.7787	9,514.16	63.981	9,514.16	58.2362	9,514.16	59.9454	9,514.16	60.1254	9,514.16	59.6445	9,514.16	56.6242	9,514.16	58.55	9,514.16	55.5115	9,514.16	52.3612	9,514.16	53.4005	9,514.16	51.2251	9,514.16	37.9386	9,514.16	50.756	9,514.16	51.3284	9,514.16	53.1726	9,514.16	49.6668	9,514.16	48.116	9,514.16	45.1285
9,849.61	85.5915	9,849.61	85.3858	9,849.61	85.6191	9,849.61	84.7599	9,849.61	84.0044	9,849.61	81.9909	9,849.61	81.3016	9,849.61	79.1664	9,849.61	78.321	9,849.61	75.4193	9,849.61	74.9238	9,849.61	71.9025	9,849.61	72.9568	9,849.61	71.0957	9,849.61	71.1009	9,849.61	65.9573	9,849.61	67.2741	9,849.61	63.7335	9,849.61	64.7232	9,849.61	60.3333	9,849.61	60.0458	9,849.61	59.2596	9,849.61	60.7263	9,849.61	57.2001	9,849.61	58.2239	9,849.61	57.9007	9,849.61	50.6301	9,849.61	54.5574	9,849.61	50.0243	9,849.61	47.5198	9,849.61	51.506	9,849.61	49.0371	9,849.61	51.8969	9,849.61	49.2216	9,849.61	47.3018	9,849.61	36.661
10,196.8	85.6687	10,196.8	85.5532	10,196.8	85.5177	10,196.8	84.5777	10,196.8	83.5469	10,196.8	81.9204	10,196.8	80.5089	10,196.8	78.9772	10,196.8	77.2712	10,196.8	75.7154	10,196.8	74.1005	10,196.8	72.7886	10,196.8	70.9582	10,196.8	71.4375	10,196.8	68.1414	10,196.8	67.4183	10,196.8	65.6492	10,196.8	64.4156	10,196.8	63.4808	10,196.8	62.5564	10,196.8	60.1364	10,196.8	58.7885	10,196.8	60.2024	10,196.8	57.1964	10,196.8	57.2054	10,196.8	56.1085	10,196.8	52.3538	10,196.8	55.1321	10,196.8	51.7911	10,196.8	51.1599	10,196.8	52.4196	10,196.8	51.7048	10,196.8	50.612	10,196.8	42.7953	10,196.8	45.9228	10,196.8	40.6329
10,555.7	86.0546	10,555.7	85.9826	10,555.7	85.6088	10,555.7	84.6567	10,555.7	83.337	10,555.7	81.9498	10,555.7	80.4655	10,555.7	78.9288	10,555.7	77.4984	10,555.7	75.7672	10,555.7	74.8191	10,555.7	72.4587	10,555.7	71.242	10,555.7	69.6114	10,555.7	68.3738	10,555.7	67.1113	10,555.7	66.5371	10,555.7	64.1491	10,555.7	64.4815	10,555.7	62.6449	10,555.7	61.6978	10,555.7	57.9194	10,555.7	60.3467	10,555.7	56.636	10,555.7	56.7566	10,555.7	55.0353	10,555.7	54.2752	10,555.7	53.146	10,555.7	52.4396	10,555.7	51.4832	10,555.7	53.5946	10,555.7	50.7475	10,555.7	52.0172	10,555.7	29.6897	10,555.7	42.531	10,555.7	46.5197
10,927.7	86.5143	10,927.7	86.2127	10,927.7	85.9617	10,927.7	84.7572	10,927.7	83.6602	10,927.7	81.813	10,927.7	80.7899	10,927.7	78.7563	10,927.7	77.8179	10,927.7	74.8182	10,927.7	74.6194	10,927.7	71.2761	10,927.7	70.5598	10,927.7	68.2012	10,927.7	67.7761	10,927.7	67.0913	10,927.7	66.4209	10,927.7	64.7956	10,927.7	64.4585	10,927.7	62.627	10,927.7	61.7581	10,927.7	59.0614	10,927.7	60.4696	10,927.7	56.8453	10,927.7	56.5437	10,927.7	54.6309	10,927.7	53.4504	10,927.7	53.0744	10,927.7	52.8596	10,927.7	52.4254	10,927.7	53.2001	10,927.7	47.6236	10,927.7	53.1415	10,927.7	41.4657	10,927.7	45.1412	10,927.7	47.1274
11,313	86.6612	11,313	86.4089	11,313	85.8992	11,313	84.8649	11,313	83.4358	11,313	81.9849	11,313	80.647	11,313	78.9067	11,313	77.3599	11,313	75.5926	11,313	73.2754	11,313	72.1484	11,313	70.1077	11,313	70.0337	11,313	68.7586	11,313	68.6505	11,313	67.261	11,313	66.7107	11,313	64.9353	11,313	63.8914	11,313	62.5225	11,313	61.3494	11,313	60.3618	11,313	58.1256	11,313	56.9788	11,313	55.9387	11,313	55.1856	11,313	54.2866	11,313	54.1266	11,313	52.1226	11,313	52.4363	11,313	50.7714	11,313	54.1675	11,313	41.9347	11,313	42.7094	11,313	47.8642
11,712.9	86.346	11,712.9	86.2865	11,712.9	85.2001	11,712.9	84.6101	11,712.9	82.6209	11,712.9	82.271	11,712.9	80.1149	11,712.9	79.3582	11,712.9	76.7954	11,712.9	75.8819	11,712.9	72.7591	11,712.9	72.7439	11,712.9	70.6929	11,712.9	70.9207	11,712.9	69.7943	11,712.9	69.4949	11,712.9	67.5176	11,712.9	66.7423	11,712.9	64.8489	11,712.9	64.4397	11,712.9	62.2091	11,712.9	61.3617	11,712.9	59.9065	11,712.9	58.703	11,712.9	57.0891	11,712.9	57.5972	11,712.9	55.6497	11,712.9	53.7001	11,712.9	53.7594	11,712.9	51.2525	11,712.9	50.2637	11,712.9	50.7148	11,712.9	52.3946	11,712.9	42.8233	11,712.9	43.9585	11,712.9	45.5241
12,126	86.428	12,126	86.0784	12,126	85.0763	12,126	84.479	12,126	82.6491	12,126	82.192	12,126	79.8169	12,126	79.1744	12,126	76.0138	12,126	75.0785	12,126	71.7359	12,126	71.536	12,126	69.7872	12,126	69.85	12,126	68.7727	12,126	68.1651	12,126	66.4891	12,126	65.4773	12,126	63.2046	12,126	62.9583	12,126	60.1682	12,126	59.7745	12,126	57.1863	12,126	57.9312	12,126	55.419	12,126	56.2017	12,126	53.9113	12,126	52.3687	12,126	52.1399	12,126	48.7915	12,126	47.7725	12,126	49.7591	12,126	48.2555	12,126	42.4567	12,126	43.9367	12,126	43.8632
12,553.7	86.5104	12,553.7	86.0368	12,553.7	85.0057	12,553.7	84.1512	12,553.7	82.6491	12,553.7	81.7104	12,553.7	79.471	12,553.7	78.3733	12,553.7	74.7551	12,553.7	73.1381	12,553.7	70.2234	12,553.7	69.6536	12,553.7	69.2063	12,553.7	68.5215	12,553.7	67.7903	12,553.7	66.6554	12,553.7	66.0167	12,553.7	64.47	12,553.7	62.7515	12,553.7	61.2374	12,553.7	59.9624	12,553.7	58.4501	12,553.7	57.021	12,553.7	55.708	12,553.7	55.3398	12,553.7	55.098	12,553.7	52.896	12,553.7	51.3981	12,553.7	51.021	12,553.7	45.5588	12,553.7	50.0939	12,553.7	47.918	12,553.7	48.135	12,553.7	38.5528	12,553.7	34.3717	12,553.7	42.6295
12,996.1	86.6509	12,996.1	86.2036	12,996.1	84.9885	12,996.1	84.0593	12,996.1	82.6545	12,996.1	81.5915	12,996.1	79.2032	12,996.1	77.5959	12,996.1	74.0043	12,996.1	71.7113	12,996.1	70.0463	12,996.1	69.2433	12,996.1	69.0067	12,996.1	68.4172	12,996.1	67.4946	12,996.1	66.9683	12,996.1	64.6961	12,996.1	64.2345	12,996.1	62.2533	12,996.1	61.1867	12,996.1	59.7014	12,996.1	57.6613	12,996.1	56.5215	12,996.1	54.9245	12,996.1	55.065	12,996.1	54.3274	12,996.1	52.6907	12,996.1	51.7863	12,996.1	50.7698	12,996.1	46.2675	12,996.1	49.4549	12,996.1	45.8082	12,996.1	49.9939	12,996.1	40.9623	12,996.1	33.3494	12,996.1	39.6646
13,454.6	86.6043	13,454.6	86.048	13,454.6	84.7704	13,454.6	83.745	13,454.6	82.2182	13,454.6	81.086	13,454.6	78.2821	13,454.6	76.3823	13,454.6	72.1055	13,454.6	70.7783	13,454.6	69.4588	13,454.6	69.3883	13,454.6	69.47	13,454.6	68.3324	13,454.6	68.1642	13,454.6	66.5289	13,454.6	65.6087	13,454.6	63.116	13,454.6	62.3512	13,454.6	60.6734	13,454.6	59.4295	13,454.6	56.4835	13,454.6	55.7105	13,454.6	54.3809	13,454.6	55.0729	13,454.6	53.3847	13,454.6	52.7755	13,454.6	50.2652	13,454.6	50.8184	13,454.6	43.4283	13,454.6	48.357	13,454.6	45.9883	13,454.6	49.658	13,454.6	40.4173	13,454.6	38.2829	13,454.6	36.9355
13,929.2	86.7513	13,929.2	86.1286	13,929.2	84.9149	13,929.2	83.8031	13,929.2	82.1434	13,929.2	80.6788	13,929.2	77.4132	13,929.2	75.3419	13,929.2	71.6537	13,929.2	70.5942	13,929.2	70.3188	13,929.2	69.374	13,929.2	69.6803	13,929.2	67.3521	13,929.2	67.9232	13,929.2	65.3589	13,929.2	65.2862	13,929.2	62.1231	13,929.2	62.4996	13,929.2	59.3445	13,929.2	59.3724	13,929.2	55.9613	13,929.2	56.4621	13,929.2	53.3531	13,929.2	55.2745	13,929.2	51.6879	13,929.2	51.3261	13,929.2	48.0949	13,929.2	50.6702	13,929.2	43.591	13,929.2	47.6601	13,929.2	43.1236	13,929.2	47.5888	13,929.2	40.1374	13,929.2	39.0485	13,929.2	29.5486
14,419.9	86.8795	14,419.9	86.2914	14,419.9	85.0529	14,419.9	84.0782	14,419.9	81.8604	14,419.9	80.4521	14,419.9	76.9023	14,419.9	75.0178	14,419.9	72.0503	14,419.9	70.9661	14,419.9	70.3873	14,419.9	68.3993	14,419.9	69.2213	14,419.9	65.9947	14,419.9	67.3722	14,419.9	64.395	14,419.9	65.0122	14,419.9	61.5287	14,419.9	62.0329	14,419.9	58.6376	14,419.9	58.6927	14,419.9	55.7114	14,419.9	55.5853	14,419.9	53.0261	14,419.9	54.475	14,419.9	50.4363	14,419.9	51.553	14,419.9	47.3116	14,419.9	49.439	14,419.9	42.2451	14,419.9	47.2275	14,419.9	39.5424	14,419.9	45.6238	14,419.9	28.0901	14,419.9	40.596	14,419.9	37.1949
14,928.2	86.1009	14,928.2	85.5496	14,928.2	84.3448	14,928.2	83.3783	14,928.2	81.1035	14,928.2	79.6699	14,928.2	76.0612	14,928.2	73.883	14,928.2	70.3885	14,928.2	67.8331	14,928.2	67.6972	14,928.2	64.9639	14,928.2	66.042	14,928.2	63.4033	14,928.2	64.2945	14,928.2	62.4678	14,928.2	62.0463	14,928.2	59.7406	14,928.2	59.0574	14,928.2	56.7271	14,928.2	55.7334	14,928.2	53.6901	14,928.2	52.9751	14,928.2	50.9512	14,928.2	52.2629	14,928.2	48.4852	14,928.2	50.0592	14,928.2	46.8413	14,928.2	46.4664	14,928.2	39.2163	14,928.2	44.4241	14,928.2	39.7364	14,928.2	44.6762	14,928.2	37.1077	14,928.2	35.6272	14,928.2	33.5268
15,455.6	85.8746	15,455.6	85.2784	15,455.6	83.9614	15,455.6	82.799	15,455.6	80.3844	15,455.6	78.4926	15,455.6	74.3677	15,455.6	71.4969	15,455.6	67.737	15,455.6	65.851	15,455.6	66.9161	15,455.6	65.7277	15,455.6	66.0557	15,455.6	65.0564	15,455.6	64.6065	15,455.6	64.1115	15,455.6	62.7212	15,455.6	60.8305	15,455.6	59.5169	15,455.6	58.2685	15,455.6	55.4727	15,455.6	54.5922	15,455.6	53.7922	15,455.6	52.1886	15,455.6	52.7423	15,455.6	48.8693	15,455.6	48.8559	15,455.6	47.4306	15,455.6	46.7543	15,455.6	38.3556	15,455.6	45.3903	15,455.6	38.4349	15,455.6	45.4004	15,455.6	39.2107	15,455.6	28.9243	15,455.6	22.9222
16,000.5	85.2778	16,000.5	84.852	16,000.5	83.1739	16,000.5	82.1831	16,000.5	79.2094	16,000.5	77.6155	16,000.5	73.0082	16,000.5	70.4117	16,000.5	67.3039	16,000.5	65.1533	16,000.5	66.1711	16,000.5	65.8558	16,000.5	65.1649	16,000.5	65.5125	16,000.5	63.4854	16,000.5	64.6602	16,000.5	61.1101	16,000.5	61.47	16,000.5	58.2992	16,000.5	58.1684	16,000.5	55.2082	16,000.5	55.251	16,000.5	52.9741	16,000.5	52.483	16,000.5	51.6487	16,000.5	47.4639	16,000.5	48.4625	16,000.5	46.6589	16,000.5	45.4309	16,000.5	38.6567	16,000.5	45.1142	16,000.5	34.9245	16,000.5	44.1904	16,000.5	41.3851	16,000.5	23.1227	16,000.5	29.774
16,564.5	84.749	16,564.5	84.3323	16,564.5	82.738	16,564.5	81.4955	16,564.5	78.4289	16,564.5	76.4982	16,564.5	71.9342	16,564.5	68.4321	16,564.5	65.4348	16,564.5	64.2437	16,564.5	64.4746	16,564.5	65.7472	16,564.5	65.4028	16,564.5	65.7958	16,564.5	64.5323	16,564.5	64.5669	16,564.5	62.3561	16,564.5	61.3962	16,564.5	58.9985	16,564.5	58.102	16,564.5	55.883	16,564.5	54.6134	16,564.5	53.1243	16,564.5	52.1108	16,564.5	51.7696	16,564.5	47.8023	16,564.5	47.5873	16,564.5	45.7179	16,564.5	45.3473	16,564.5	36.2396	16,564.5	43.7472	16,564.5	23.1671	16,564.5	44.2434	16,564.5	41.721	16,564.5	23.4836	16,564.5	20.025
17,148.9	84.216	17,148.9	83.7901	17,148.9	82.3115	17,148.9	80.8096	17,148.9	77.1093	17,148.9	74.74	17,148.9	69.3819	17,148.9	65.4339	17,148.9	63.0707	17,148.9	63.0702	17,148.9	65.8022	17,148.9	65.9786	17,148.9	66.5402	17,148.9	66.3378	17,148.9	65.2448	17,148.9	64.3477	17,148.9	62.4175	17,148.9	60.5282	17,148.9	58.9221	17,148.9	57.3492	17,148.9	55.1447	17,148.9	53.4709	17,148.9	52.7407	17,148.9	51.4882	17,148.9	51.3353	17,148.9	47.224	17,148.9	45.2272	17,148.9	43.996	17,148.9	44.018	17,148.9	31.5827	17,148.9	42.4831	17,148.9	28.3887	17,148.9	40.5826	17,148.9	37.1587	17,148.9	30.3478	17,148.9	25.9064
17,752.4	83.827	17,752.4	83.5612	17,752.4	81.7494	17,752.4	80.1032	17,752.4	75.8333	17,752.4	73.1696	17,752.4	68.093	17,752.4	62.9253	17,752.4	63.341	17,752.4	64.2308	17,752.4	65.7449	17,752.4	67.0086	17,752.4	66.1264	17,752.4	66.4003	17,752.4	63.9671	17,752.4	63.8645	17,752.4	60.9574	17,752.4	60.2521	17,752.4	57.5151	17,752.4	56.6876	17,752.4	53.5997	17,752.4	52.644	17,752.4	51.5717	17,752.4	51.1608	17,752.4	49.7728	17,752.4	46.8439	17,752.4	43.1198	17,752.4	43.2729	17,752.4	42.6567	17,752.4	32.4935	17,752.4	41.2608	17,752.4	26.3809	17,752.4	38.6248	17,752.4	36.9317	17,752.4	26.3218	17,752.4	30.7722
18,379.4	83.3563	18,379.4	82.9776	18,379.4	81.187	18,379.4	79.1924	18,379.4	74.7456	18,379.4	71.495	18,379.4	65.7981	18,379.4	62.1089	18,379.4	64.0904	18,379.4	65.8352	18,379.4	66.3945	18,379.4	67.2509	18,379.4	65.9874	18,379.4	65.737	18,379.4	63.1864	18,379.4	62.9534	18,379.4	60.4302	18,379.4	59.3025	18,379.4	57.2283	18,379.4	55.6465	18,379.4	52.9412	18,379.4	52.4879	18,379.4	51.0284	18,379.4	50.4482	18,379.4	48.5565	18,379.4	44.8169	18,379.4	38.3111	18,379.4	41.6097	18,379.4	40.5676	18,379.4	28.4545	18,379.4	38.1341	18,379.4	28.7927	18,379.4	36.5257	18,379.4	34.935	18,379.4	27.9653	18,379.4	32.2489
19,026.9	83.1468	19,026.9	82.6869	19,026.9	80.7498	19,026.9	78.6039	19,026.9	73.9086	19,026.9	69.8874	19,026.9	64.8542	19,026.9	62.68	19,026.9	65.7866	19,026.9	66.9858	19,026.9	67.1696	19,026.9	67.0286	19,026.9	66.0099	19,026.9	65.0735	19,026.9	63.191	19,026.9	62.595	19,026.9	59.8562	19,026.9	58.682	19,026.9	57.0358	19,026.9	54.8022	19,026.9	52.5489	19,026.9	52.0202	19,026.9	50.5079	19,026.9	49.463	19,026.9	47.0445	19,026.9	42.6364	19,026.9	37.5809	19,026.9	39.5837	19,026.9	39.2339	19,026.9	22.6166	19,026.9	37.1934	19,026.9	29.4003	19,026.9	30.9253	19,026.9	32.7936	19,026.9	29.9703	19,026.9	32.1935
19,697.8	82.9174	19,697.8	82.3197	19,697.8	80.3816	19,697.8	77.7897	19,697.8	73.0698	19,697.8	68.7347	19,697.8	63.333	19,697.8	63.5031	19,697.8	66.1363	19,697.8	67.3655	19,697.8	66.8883	19,697.8	66.5133	19,697.8	64.8892	19,697.8	63.7529	19,697.8	62.0205	19,697.8	61.1321	19,697.8	58.4777	19,697.8	56.8365	19,697.8	55.6574	19,697.8	53.1211	19,697.8	50.6058	19,697.8	50.3796	19,697.8	48.868	19,697.8	47.1874	19,697.8	44.9383	19,697.8	38.8725	19,697.8	38.9068	19,697.8	37.2907	19,697.8	37.1507	19,697.8	24.7506	19,697.8	35.7816	19,697.8	32.8918	19,697.8	27.4715	19,697.8	28.2042	19,697.8	28.8994	19,697.8	28.9379
19,999.5	82.8922	19,999.5	82.2297	19,999.5	80.2252	19,999.5	77.3611	19,999.5	72.8012	19,999.5	67.6696	19,999.5	62.2778	19,999.5	62.8987	19,999.5	66.6696	19,999.5	67.2464	19,999.5	66.4078	19,999.5	66.3814	19,999.5	64.1128	19,999.5	63.1038	19,999.5	62.0225	19,999.5	60.066	19,999.5	59.03	19,999.5	55.8055	19,999.5	55.4633	19,999.5	52.0341	19,999.5	50.0133	19,999.5	50.2782	19,999.5	47.4885	19,999.5	34.4599	19,999.5	45.6167	19,999.5	44.6579	19,999.5	47.9013	19,999.5	52.2339	19,999.5	29.6377	19,999.5	44.8214	19,999.5	44.5416	19,999.5	37.305	19,999.5	29.7846	19,999.5	41.7563	19,999.5	40.8376	19,999.5	33.4699
