"SPL Vertical"
"On-Axis"		"10°"		"-10°"		"20°"		"-20°"		"30°"		"-30°"		"40°"		"-40°"		"50°"		"-50°"		"60°"		"-60°"		"70°"		"-70°"		"80°"		"-80°"		"90°"		"-90°"		"100°"		"-100°"		"110°"		"-110°"		"120°"		"-120°"		"130°"		"-130°"		"140°"		"-140°"		"150°"		"-150°"		"160°"		"-160°"		"170°"		"-170°"		"180°"
"Frequency / Hz"	"Sound Pressure Level / dB (re 20 µPa/V)  [2.83  V @ 1. m]"	"Frequency / Hz"	"Sound Pressure Level / dB (re 20 µPa/V)  [2.83  V @ 1. m]"	"Frequency / Hz"	"Sound Pressure Level / dB (re 20 µPa/V)  [2.83  V @ 1. m]"	"Frequency / Hz"	"Sound Pressure Level / dB (re 20 µPa/V)  [2.83  V @ 1. m]"	"Frequency / Hz"	"Sound Pressure Level / dB (re 20 µPa/V)  [2.83  V @ 1. m]"	"Frequency / Hz"	"Sound Pressure Level / dB (re 20 µPa/V)  [2.83  V @ 1. m]"	"Frequency / Hz"	"Sound Pressure Level / dB (re 20 µPa/V)  [2.83  V @ 1. m]"	"Frequency / Hz"	"Sound Pressure Level / dB (re 20 µPa/V)  [2.83  V @ 1. m]"	"Frequency / Hz"	"Sound Pressure Level / dB (re 20 µPa/V)  [2.83  V @ 1. m]"	"Frequency / Hz"	"Sound Pressure Level / dB (re 20 µPa/V)  [2.83  V @ 1. m]"	"Frequency / Hz"	"Sound Pressure Level / dB (re 20 µPa/V)  [2.83  V @ 1. m]"	"Frequency / Hz"	"Sound Pressure Level / dB (re 20 µPa/V)  [2.83  V @ 1. m]"	"Frequency / Hz"	"Sound Pressure Level / dB (re 20 µPa/V)  [2.83  V @ 1. m]"	"Frequency / Hz"	"Sound Pressure Level / dB (re 20 µPa/V)  [2.83  V @ 1. m]"	"Frequency / Hz"	"Sound Pressure Level / dB (re 20 µPa/V)  [2.83  V @ 1. m]"	"Frequency / Hz"	"Sound Pressure Level / dB (re 20 µPa/V)  [2.83  V @ 1. m]"	"Frequency / Hz"	"Sound Pressure Level / dB (re 20 µPa/V)  [2.83  V @ 1. m]"	"Frequency / Hz"	"Sound Pressure Level / dB (re 20 µPa/V)  [2.83  V @ 1. m]"	"Frequency / Hz"	"Sound Pressure Level / dB (re 20 µPa/V)  [2.83  V @ 1. m]"	"Frequency / Hz"	"Sound Pressure Level / dB (re 20 µPa/V)  [2.83  V @ 1. m]"	"Frequency / Hz"	"Sound Pressure Level / dB (re 20 µPa/V)  [2.83  V @ 1. m]"	"Frequency / Hz"	"Sound Pressure Level / dB (re 20 µPa/V)  [2.83  V @ 1. m]"	"Frequency / Hz"	"Sound Pressure Level / dB (re 20 µPa/V)  [2.83  V @ 1. m]"	"Frequency / Hz"	"Sound Pressure Level / dB (re 20 µPa/V)  [2.83  V @ 1. m]"	"Frequency / Hz"	"Sound Pressure Level / dB (re 20 µPa/V)  [2.83  V @ 1. m]"	"Frequency / Hz"	"Sound Pressure Level / dB (re 20 µPa/V)  [2.83  V @ 1. m]"	"Frequency / Hz"	"Sound Pressure Level / dB (re 20 µPa/V)  [2.83  V @ 1. m]"	"Frequency / Hz"	"Sound Pressure Level / dB (re 20 µPa/V)  [2.83  V @ 1. m]"	"Frequency / Hz"	"Sound Pressure Level / dB (re 20 µPa/V)  [2.83  V @ 1. m]"	"Frequency / Hz"	"Sound Pressure Level / dB (re 20 µPa/V)  [2.83  V @ 1. m]"	"Frequency / Hz"	"Sound Pressure Level / dB (re 20 µPa/V)  [2.83  V @ 1. m]"	"Frequency / Hz"	"Sound Pressure Level / dB (re 20 µPa/V)  [2.83  V @ 1. m]"	"Frequency / Hz"	"Sound Pressure Level / dB (re 20 µPa/V)  [2.83  V @ 1. m]"	"Frequency / Hz"	"Sound Pressure Level / dB (re 20 µPa/V)  [2.83  V @ 1. m]"	"Frequency / Hz"	"Sound Pressure Level / dB (re 20 µPa/V)  [2.83  V @ 1. m]"	"Frequency / Hz"	"Sound Pressure Level / dB (re 20 µPa/V)  [2.83  V @ 1. m]"
20.5078	53.6293	20.5078	53.7458	20.5078	53.3539	20.5078	53.7149	20.5078	52.906	20.5078	53.5443	20.5078	52.2758	20.5078	53.2383	20.5078	51.4769	20.5078	52.7987	20.5078	50.5918	20.5078	52.2271	20.5078	49.8521	20.5078	51.5279	20.5078	49.6529	20.5078	50.7167	20.5078	50.2564	20.5078	49.8386	20.5078	51.4511	20.5078	49.0017	20.5078	52.8056	20.5078	48.4136	20.5078	54.027	20.5078	48.3427	20.5078	54.9899	20.5078	48.9236	20.5078	55.6562	20.5078	50.0082	20.5078	56.0225	20.5078	51.3099	20.5078	56.0977	20.5078	52.6008	20.5078	55.8942	20.5078	53.7535	20.5078	55.4253	20.5078	54.7055
21.9727	35.026	21.9727	32.487	21.9727	38.3487	21.9727	31.286	21.9727	41.8082	21.9727	31.9951	21.9727	45.028	21.9727	34.6153	21.9727	47.8956	21.9727	37.9151	21.9727	50.4088	21.9727	41.042	21.9727	52.5948	21.9727	43.7934	21.9727	54.482	21.9727	46.1887	21.9727	56.0933	21.9727	48.2882	21.9727	57.445	21.9727	50.148	21.9727	58.5484	21.9727	51.8117	21.9727	59.4121	21.9727	53.3106	21.9727	60.0435	21.9727	54.6658	21.9727	60.4504	21.9727	55.8895	21.9727	60.6423	21.9727	56.9871	21.9727	60.63	21.9727	57.9582	21.9727	60.426	21.9727	58.7976	21.9727	60.0436	21.9727	59.4965
23.4375	57.8657	23.4375	57.7947	23.4375	57.9571	23.4375	57.7299	23.4375	58.0906	23.4375	57.6655	23.4375	58.2944	23.4375	57.6027	23.4375	58.5973	23.4375	57.5496	23.4375	59.0195	23.4375	57.52	23.4375	59.5618	23.4375	57.5324	23.4375	60.2002	23.4375	57.6082	23.4375	60.8903	23.4375	57.7679	23.4375	61.5777	23.4375	58.0273	23.4375	62.2098	23.4375	58.3931	23.4375	62.7432	23.4375	58.8604	23.4375	63.1467	23.4375	59.4128	23.4375	63.4012	23.4375	60.0248	23.4375	63.4988	23.4375	60.6659	23.4375	63.4406	23.4375	61.3039	23.4375	63.2354	23.4375	61.9075	23.4375	62.898	23.4375	62.4476
24.9023	55.7964	24.9023	55.7447	24.9023	55.8727	24.9023	55.6929	24.9023	56.0127	24.9023	55.6303	24.9023	56.2659	24.9023	55.5583	24.9023	56.6795	24.9023	55.4896	24.9023	57.2777	24.9023	55.4473	24.9023	58.0446	24.9023	55.4625	24.9023	58.9251	24.9023	55.5707	24.9023	59.8438	24.9023	55.8039	24.9023	60.7262	24.9023	56.1822	24.9023	61.5121	24.9023	56.7064	24.9023	62.1583	24.9023	57.3572	24.9023	62.6378	24.9023	58.1005	24.9023	62.9366	24.9023	58.8955	24.9023	63.0509	24.9023	59.7016	24.9023	62.9852	24.9023	60.4818	24.9023	62.7501	24.9023	61.2035	24.9023	62.3615	24.9023	61.8385
26.3672	60.3125	26.3672	60.2063	26.3672	60.4511	26.3672	60.1203	26.3672	60.6399	26.3672	60.0483	26.3672	60.8991	26.3672	59.9901	26.3672	61.2471	26.3672	59.951	26.3672	61.6932	26.3672	59.9411	26.3672	62.2312	26.3672	59.9744	26.3672	62.8367	26.3672	60.0667	26.3672	63.4714	26.3672	60.2327	26.3672	64.09	26.3672	60.4837	26.3672	64.6483	26.3672	60.8242	26.3672	65.1094	26.3672	61.2502	26.3672	65.446	26.3672	61.7496	26.3672	65.6415	26.3672	62.3033	26.3672	65.6895	26.3672	62.8879	26.3672	65.5926	26.3672	63.4776	26.3672	65.3613	26.3672	64.0456	26.3672	65.012	26.3672	64.5655
27.832	59.962	27.832	59.8029	27.832	60.1474	27.832	59.6547	27.832	60.3825	27.832	59.5115	27.832	60.695	27.832	59.3763	27.832	61.1097	27.832	59.2608	27.832	61.6378	27.832	59.1842	27.832	62.2695	27.832	59.171	27.832	62.9725	27.832	59.2477	27.832	63.6991	27.832	59.4367	27.832	64.3968	27.832	59.7516	27.832	65.0176	27.832	60.1921	27.832	65.523	27.832	60.7442	27.832	65.8858	27.832	61.3832	27.832	66.0897	27.832	62.0787	27.832	66.1289	27.832	62.7985	27.832	66.0064	27.832	63.5116	27.832	65.7326	27.832	64.1884	27.832	65.3239	27.832	64.8011
29.2969	64.6591	29.2969	64.5131	29.2969	64.8342	29.2969	64.3904	29.2969	65.0473	29.2969	64.2888	29.2969	65.309	29.2969	64.2103	29.2969	65.6283	29.2969	64.16	29.2969	66.0094	29.2969	64.1458	29.2969	66.4479	29.2969	64.1774	29.2969	66.9286	29.2969	64.265	29.2969	67.4269	29.2969	64.4174	29.2969	67.9117	29.2969	64.6408	29.2969	68.3504	29.2969	64.9369	29.2969	68.7131	29.2969	65.302	29.2969	68.9762	29.2969	65.7271	29.2969	69.124	29.2969	66.1978	29.2969	69.1492	29.2969	66.6962	29.2969	69.053	29.2969	67.2015	29.2969	68.8432	29.2969	67.6914	29.2969	68.5339	29.2969	68.143
30.7617	66.1018	30.7617	65.9747	30.7617	66.2585	30.7617	65.8708	30.7617	66.454	30.7617	65.7877	30.7617	66.6988	30.7617	65.7261	30.7617	67.0021	30.7617	65.6903	30.7617	67.3679	30.7617	65.687	30.7617	67.7918	30.7617	65.7244	30.7617	68.2587	30.7617	65.8113	30.7617	68.7442	30.7617	65.9558	30.7617	69.2175	30.7617	66.1633	30.7617	69.6462	30.7617	66.4361	30.7617	70.0006	30.7617	66.7719	30.7617	70.2574	30.7617	67.1638	30.7617	70.401	30.7617	67.6002	30.7617	70.4242	30.7617	68.0659	30.7617	70.3285	30.7617	68.5423	30.7617	70.1224	30.7617	69.0085	30.7617	69.8207	30.7617	69.4422
32.2266	68.1906	32.2266	68.049	32.2266	68.3615	32.2266	67.9335	32.2266	68.5666	32.2266	67.8432	32.2266	68.8113	32.2266	67.7792	32.2266	69.0995	32.2266	67.7447	32.2266	69.4321	32.2266	67.7444	32.2266	69.804	32.2266	67.7841	32.2266	70.2033	32.2266	67.8698	32.2266	70.6114	32.2266	68.0067	32.2266	71.0049	32.2266	68.1984	32.2266	71.3586	32.2266	68.4461	32.2266	71.6485	32.2266	68.7471	32.2266	71.8552	32.2266	69.0954	32.2266	71.9656	32.2266	69.4809	32.2266	71.9737	32.2266	69.8904	32.2266	71.8809	32.2266	70.3079	32.2266	71.6946	32.2266	70.7157	32.2266	71.4274	32.2266	71.0951
33.6914	69.802	33.6914	69.6667	33.6914	69.9632	33.6914	69.5542	33.6914	70.155	33.6914	69.463	33.6914	70.3822	33.6914	69.394	33.6914	70.6483	33.6914	69.3497	33.6914	70.9538	33.6914	69.3344	33.6914	71.2941	33.6914	69.3534	33.6914	71.6584	33.6914	69.4124	33.6914	72.0299	33.6914	69.5168	33.6914	72.3869	33.6914	69.671	33.6914	72.7057	33.6914	69.8772	33.6914	72.9636	33.6914	70.1348	33.6914	73.1419	33.6914	70.4398	33.6914	73.2276	33.6914	70.7849	33.6914	73.215	33.6914	71.1592	33.6914	73.1058	33.6914	71.5487	33.6914	72.9082	33.6914	71.937	33.6914	72.6359	33.6914	72.3058
35.1562	71.5613	35.1562	71.4269	35.1562	71.7229	35.1562	71.3173	35.1562	71.915	35.1562	71.2314	35.1562	72.1412	35.1562	71.1699	35.1562	72.4035	35.1562	71.1346	35.1562	72.7014	35.1562	71.1287	35.1562	73.0298	35.1562	71.1562	35.1562	73.3782	35.1562	71.2215	35.1562	73.731	35.1562	71.3287	35.1562	74.0684	35.1562	71.4809	35.1562	74.3686	35.1562	71.6799	35.1562	74.6108	35.1562	71.9251	35.1562	74.7776	35.1562	72.2135	35.1562	74.857	35.1562	72.5387	35.1562	74.8434	35.1562	72.8914	35.1562	74.7383	35.1562	73.2591	35.1562	74.5496	35.1562	73.6265	35.1562	74.2901	35.1562	73.9763
36.6211	72.993	36.6211	72.8524	36.6211	73.1609	36.6211	72.7375	36.6211	73.3582	36.6211	72.6475	36.6211	73.5868	36.6211	72.5828	36.6211	73.8467	36.6211	72.5447	36.6211	74.1358	36.6211	72.5358	36.6211	74.4479	36.6211	72.559	36.6211	74.7726	36.6211	72.6178	36.6211	75.0953	36.6211	72.7153	36.6211	75.3984	36.6211	72.8541	36.6211	75.6627	36.6211	73.0356	36.6211	75.87	36.6211	73.2592	36.6211	76.0051	36.6211	73.5225	36.6211	76.0579	36.6211	73.8203	36.6211	76.0245	36.6211	74.1447	36.6211	75.9074	36.6211	74.4851	36.6211	75.715	36.6211	74.8283	36.6211	75.4602	36.6211	75.1589
38.0859	74.6062	38.0859	74.4559	38.0859	74.7822	38.0859	74.3305	38.0859	74.9851	38.0859	74.2299	38.0859	75.2152	38.0859	74.1546	38.0859	75.4717	38.0859	74.1061	38.0859	75.7513	38.0859	74.0865	38.0859	76.0479	38.0859	74.0985	38.0859	76.3515	38.0859	74.1451	38.0859	76.649	38.0859	74.229	38.0859	76.9244	38.0859	74.3526	38.0859	77.1606	38.0859	74.5174	38.0859	77.3412	38.0859	74.7235	38.0859	77.4525	38.0859	74.969	38.0859	77.4853	38.0859	75.2499	38.0859	77.436	38.0859	75.5594	38.0859	77.3072	38.0859	75.8877	38.0859	77.1073	38.0859	76.2224	38.0859	76.849	38.0859	76.5484
39.5508	76.1302	39.5508	75.9868	39.5508	76.2989	39.5508	75.868	39.5508	76.4931	39.5508	75.7738	39.5508	76.7124	39.5508	75.7045	39.5508	76.9552	39.5508	75.6611	39.5508	77.2176	39.5508	75.6452	39.5508	77.4931	39.5508	75.6587	39.5508	77.7725	39.5508	75.7038	39.5508	78.0436	39.5508	75.7827	39.5508	78.2924	39.5508	75.8973	39.5508	78.5036	39.5508	76.0486	39.5508	78.6627	39.5508	76.2368	39.5508	78.7579	39.5508	76.4604	39.5508	78.781	39.5508	76.7159	39.5508	78.7294	39.5508	76.9975	39.5508	78.6058	39.5508	77.2967	39.5508	78.4181	39.5508	77.6024	39.5508	78.1785	39.5508	77.9014
41.0156	77.4783	41.0156	77.3381	41.0156	77.6424	41.0156	77.2217	41.0156	77.8299	41.0156	77.1293	41.0156	78.04	41.0156	77.0617	41.0156	78.2704	41.0156	77.0197	41.0156	78.5172	41.0156	77.005	41.0156	78.7745	41.0156	77.0194	41.0156	79.0337	41.0156	77.0648	41.0156	79.2842	41.0156	77.1434	41.0156	79.5135	41.0156	77.2566	41.0156	79.708	41.0156	77.4053	41.0156	79.8549	41.0156	77.589	41.0156	79.9436	41.0156	77.8057	41.0156	79.9667	41.0156	78.0515	41.0156	79.9218	41.0156	78.3201	41.0156	79.8109	41.0156	78.603	41.0156	79.6409	41.0156	78.8894	41.0156	79.422	41.0156	79.167
42.4805	78.4957	42.4805	78.3549	42.4805	78.6592	42.4805	78.2373	42.4805	78.8448	42.4805	78.143	42.4805	79.0509	42.4805	78.0727	42.4805	79.2747	42.4805	78.027	42.4805	79.5117	42.4805	78.0072	42.4805	79.7554	42.4805	78.0148	42.4805	79.9975	42.4805	78.0512	42.4805	80.2275	42.4805	78.1181	42.4805	80.4337	42.4805	78.2167	42.4805	80.6038	42.4805	78.3477	42.4805	80.7263	42.4805	78.5111	42.4805	80.7919	42.4805	78.7054	42.4805	80.7946	42.4805	78.9277	42.4805	80.7329	42.4805	79.1732	42.4805	80.6104	42.4805	79.4347	42.4805	80.4345	42.4805	79.7034	42.4805	80.2161	42.4805	79.968
43.9453	79.431	43.9453	79.2838	43.9453	79.5991	43.9453	79.1589	43.9453	79.7865	43.9453	79.0574	43.9453	79.9906	43.9453	78.9804	43.9453	80.2079	43.9453	78.9287	43.9453	80.4338	43.9453	78.9036	43.9453	80.6623	43.9453	78.906	43.9453	80.8856	43.9453	78.9373	43.9453	81.0947	43.9453	78.9986	43.9453	81.2791	43.9453	79.0906	43.9453	81.4282	43.9453	79.214	43.9453	81.5317	43.9453	79.3682	43.9453	81.5815	43.9453	79.5519	43.9453	81.5725	43.9453	79.7624	43.9453	81.5037	43.9453	79.9951	43.9453	81.3786	43.9453	80.2436	43.9453	81.2046	43.9453	80.4996	43.9453	80.9921	43.9453	80.7529
45.4102	80.1451	45.4102	79.999	45.4102	80.3103	45.4102	79.8736	45.4102	80.4928	45.4102	79.77	45.4102	80.6899	45.4102	79.6895	45.4102	80.898	45.4102	79.6332	45.4102	81.1126	45.4102	79.6022	45.4102	81.3276	45.4102	79.5977	45.4102	81.5359	45.4102	79.6209	45.4102	81.7287	45.4102	79.6729	45.4102	81.8965	45.4102	79.7544	45.4102	82.0293	45.4102	79.866	45.4102	82.1179	45.4102	80.0075	45.4102	82.1548	45.4102	80.1776	45.4102	82.1356	45.4102	80.374	45.4102	82.0599	45.4102	80.5927	45.4102	81.9313	45.4102	80.828	45.4102	81.7574	45.4102	81.0723	45.4102	81.5484	45.4102	81.3161
46.875	80.6237	46.875	80.4803	46.875	80.7853	46.875	80.3566	46.875	80.9632	46.875	80.2542	46.875	81.1546	46.875	80.1743	46.875	81.3561	46.875	80.1181	46.875	81.5631	46.875	80.0869	46.875	81.7697	46.875	80.0817	46.875	81.9687	46.875	80.1036	46.875	82.1517	46.875	80.1534	46.875	82.3095	46.875	80.2318	46.875	82.4325	46.875	80.3389	46.875	82.5122	46.875	80.4743	46.875	82.5419	46.875	80.6366	46.875	82.5179	46.875	80.8236	46.875	82.4403	46.875	81.0316	46.875	82.3132	46.875	81.2552	46.875	82.144	46.875	81.4876	46.875	81.9426	46.875	81.7201
48.3398	81.1033	48.3398	80.9554	48.3398	81.2689	48.3398	80.8273	48.3398	81.4498	48.3398	80.7207	48.3398	81.6427	48.3398	80.637	48.3398	81.8435	48.3398	80.5774	48.3398	82.0473	48.3398	80.5428	48.3398	82.2479	48.3398	80.5341	48.3398	82.438	48.3398	80.5521	48.3398	82.6098	48.3398	80.5972	48.3398	82.7544	48.3398	80.6697	48.3398	82.8633	48.3398	80.7698	48.3398	82.9288	48.3398	80.8969	48.3398	82.9451	48.3398	81.0501	48.3398	82.9094	48.3398	81.2273	48.3398	82.8224	48.3398	81.4257	48.3398	82.6885	48.3398	81.6405	48.3398	82.5155	48.3398	81.8656	48.3398	82.3134	48.3398	82.0932
51.2695	81.8191	51.2695	81.6701	51.2695	81.9844	51.2695	81.5399	51.2695	82.1626	51.2695	81.4308	51.2695	82.3497	51.2695	81.3444	51.2695	82.5412	51.2695	81.2819	51.2695	82.7316	51.2695	81.244	51.2695	82.9147	51.2695	81.2314	51.2695	83.084	51.2695	81.2443	51.2695	83.2321	51.2695	81.2829	51.2695	83.3518	51.2695	81.347	51.2695	83.4362	51.2695	81.4364	51.2695	83.4793	51.2695	81.5503	51.2695	83.4771	51.2695	81.688	51.2695	83.4282	51.2695	81.8476	51.2695	83.3342	51.2695	82.0268	51.2695	83.1999	51.2695	82.2217	51.2695	83.0326	51.2695	82.4273	51.2695	82.8416	51.2695	82.6367
52.7344	82.1152	52.7344	81.9693	52.7344	82.2754	52.7344	81.8402	52.7344	82.4464	52.7344	81.7302	52.7344	82.6246	52.7344	81.6409	52.7344	82.8053	52.7344	81.5738	52.7344	82.9832	52.7344	81.5296	52.7344	83.1525	52.7344	81.5093	52.7344	83.3066	52.7344	81.513	52.7344	83.4387	52.7344	81.541	52.7344	83.5421	52.7344	81.5933	52.7344	83.6106	52.7344	81.6698	52.7344	83.639	52.7344	81.77	52.7344	83.6241	52.7344	81.8932	52.7344	83.5651	52.7344	82.0381	52.7344	83.4643	52.7344	82.2026	52.7344	83.3267	52.7344	82.3836	52.7344	83.16	52.7344	82.5767	52.7344	82.9731	52.7344	82.7758
54.1992	82.2456	54.1992	82.0996	54.1992	82.4059	54.1992	81.9707	54.1992	82.5766	54.1992	81.8615	54.1992	82.7534	54.1992	81.7735	54.1992	82.9312	54.1992	81.708	54.1992	83.1045	54.1992	81.6657	54.1992	83.2671	54.1992	81.647	54.1992	83.4129	54.1992	81.6519	54.1992	83.5355	54.1992	81.6803	54.1992	83.6287	54.1992	81.7318	54.1992	83.6872	54.1992	81.8062	54.1992	83.7068	54.1992	81.9027	54.1992	83.6851	54.1992	82.0205	54.1992	83.6221	54.1992	82.1584	54.1992	83.5203	54.1992	82.3145	54.1992	83.3852	54.1992	82.4858	54.1992	83.2239	54.1992	82.6686	54.1992	83.045	54.1992	82.8572
55.6641	82.3319	55.6641	82.1849	55.6641	82.4898	55.6641	82.0519	55.6641	82.6549	55.6641	81.9354	55.6641	82.823	55.6641	81.8375	55.6641	82.9893	55.6641	81.7599	55.6641	83.1489	55.6641	81.7036	55.6641	83.2961	55.6641	81.6694	55.6641	83.4255	55.6641	81.658	55.6641	83.531	55.6641	81.6696	55.6641	83.6073	55.6641	81.7044	55.6641	83.6494	55.6641	81.7624	55.6641	83.6534	55.6641	81.8434	55.6641	83.6173	55.6641	81.9471	55.6641	83.5415	55.6641	82.0726	55.6641	83.4289	55.6641	82.2184	55.6641	83.285	55.6641	82.3821	55.6641	83.1175	55.6641	82.5598	55.6641	82.935	55.6641	82.7464
58.5938	82.3491	58.5938	82.1987	58.5938	82.5119	58.5938	82.0641	58.5938	82.6833	58.5938	81.9478	58.5938	82.8585	58.5938	81.8521	58.5938	83.0323	58.5938	81.7785	58.5938	83.1989	58.5938	81.7278	58.5938	83.352	58.5938	81.7007	58.5938	83.4851	58.5938	81.697	58.5938	83.5921	58.5938	81.7165	58.5938	83.6671	58.5938	81.7588	58.5938	83.7056	58.5938	81.823	58.5938	83.7044	58.5938	81.9085	58.5938	83.6625	58.5938	82.0143	58.5938	83.5814	58.5938	82.1393	58.5938	83.4651	58.5938	82.2822	58.5938	83.3199	58.5938	82.4407	58.5938	83.1536	58.5938	82.6121	58.5938	82.9749	58.5938	82.7921
60.0586	82.4989	60.0586	82.3495	60.0586	82.6608	60.0586	82.2163	60.0586	82.8311	60.0586	82.1019	60.0586	83.0046	60.0586	82.0082	60.0586	83.1758	60.0586	81.9364	60.0586	83.3386	60.0586	81.8871	60.0586	83.4865	60.0586	81.8604	60.0586	83.6134	60.0586	81.8561	60.0586	83.7131	60.0586	81.8736	60.0586	83.7805	60.0586	81.9125	60.0586	83.8116	60.0586	81.9721	60.0586	83.8037	60.0586	82.0517	60.0586	83.7564	60.0586	82.1508	60.0586	83.6716	60.0586	82.2685	60.0586	83.5536	60.0586	82.4037	60.0586	83.4086	60.0586	82.5547	60.0586	83.2446	60.0586	82.7189	60.0586	83.0699	60.0586	82.8924
62.9883	82.7081	62.9883	82.5573	62.9883	82.8695	62.9883	82.4214	62.9883	83.0368	62.9883	82.3034	62.9883	83.2049	62.9883	82.2058	62.9883	83.368	62.9883	82.1304	62.9883	83.5202	62.9883	82.0779	62.9883	83.6555	62.9883	82.0486	62.9883	83.7682	62.9883	82.0421	62.9883	83.8529	62.9883	82.0578	62.9883	83.9053	62.9883	82.0946	62.9883	83.9222	62.9883	82.1513	62.9883	83.9022	62.9883	82.227	62.9883	83.8457	62.9883	82.3204	62.9883	83.7555	62.9883	82.4305	62.9883	83.6362	62.9883	82.556	62.9883	83.4943	62.9883	82.6954	62.9883	83.3373	62.9883	82.8469	62.9883	83.1727	62.9883	83.0074
64.4531	82.7926	64.4531	82.6392	64.4531	82.9554	64.4531	82.4994	64.4531	83.1226	64.4531	82.3766	64.4531	83.289	64.4531	82.2734	64.4531	83.4488	64.4531	82.1918	64.4531	83.5958	64.4531	82.1326	64.4531	83.7243	64.4531	82.0961	64.4531	83.8285	64.4531	82.0823	64.4531	83.9032	64.4531	82.0902	64.4531	83.9445	64.4531	82.119	64.4531	83.9496	64.4531	82.1676	64.4531	83.9175	64.4531	82.235	64.4531	83.8493	64.4531	82.3201	64.4531	83.7483	64.4531	82.4221	64.4531	83.6198	64.4531	82.5402	64.4531	83.4707	64.4531	82.6732	64.4531	83.309	64.4531	82.8198	64.4531	83.1423	64.4531	82.9774
67.3828	82.8885	67.3828	82.7336	67.3828	83.0525	67.3828	82.5921	67.3828	83.2204	67.3828	82.4677	67.3828	83.3865	67.3828	82.3632	67.3828	83.545	67.3828	82.2807	67.3828	83.6898	67.3828	82.2213	67.3828	83.8149	67.3828	82.1851	67.3828	83.9147	67.3828	82.1719	67.3828	83.9845	67.3828	82.1809	67.3828	84.0206	67.3828	82.2108	67.3828	84.0208	67.3828	82.2603	67.3828	83.9845	67.3828	82.328	67.3828	83.9133	67.3828	82.4127	67.3828	83.8109	67.3828	82.5134	67.3828	83.6828	67.3828	82.6292	67.3828	83.5358	67.3828	82.7591	67.3828	83.3775	67.3828	82.9017	67.3828	83.2151	67.3828	83.0548
68.8477	82.8997	68.8477	82.7422	68.8477	83.0658	68.8477	82.5982	68.8477	83.2354	68.8477	82.4713	68.8477	83.4026	68.8477	82.3646	68.8477	83.5615	68.8477	82.2802	68.8477	83.706	68.8477	82.2194	68.8477	83.8299	68.8477	82.1826	68.8477	83.928	68.8477	82.1694	68.8477	83.9956	68.8477	82.1791	68.8477	84.0292	68.8477	82.2102	68.8477	84.027	68.8477	82.2614	68.8477	83.9888	68.8477	82.331	68.8477	83.9165	68.8477	82.4179	68.8477	83.8139	68.8477	82.5205	68.8477	83.6864	68.8477	82.6379	68.8477	83.5409	68.8477	82.7689	68.8477	83.3843	68.8477	82.9118	68.8477	83.2235	68.8477	83.0645
71.7773	83.0269	71.7773	82.8654	71.7773	83.1948	71.7773	82.7153	71.7773	83.3635	71.7773	82.5807	71.7773	83.5272	71.7773	82.4652	71.7773	83.6796	71.7773	82.3715	71.7773	83.8147	71.7773	82.3013	71.7773	83.927	71.7773	82.2556	71.7773	84.0116	71.7773	82.2347	71.7773	84.0646	71.7773	82.2381	71.7773	84.0838	71.7773	82.2648	71.7773	84.0683	71.7773	82.3134	71.7773	84.019	71.7773	82.382	71.7773	83.9389	71.7773	82.4689	71.7773	83.8324	71.7773	82.5721	71.7773	83.7051	71.7773	82.6895	71.7773	83.5631	71.7773	82.8191	71.7773	83.4126	71.7773	82.9589	71.7773	83.2588	71.7773	83.1064
74.707	83.2548	74.707	83.1061	74.707	83.4099	74.707	82.9685	74.707	83.5658	74.707	82.8462	74.707	83.7164	74.707	82.7421	74.707	83.8555	74.707	82.6584	74.707	83.9771	74.707	82.5962	74.707	84.0754	74.707	82.556	74.707	84.1458	74.707	82.5373	74.707	84.1844	74.707	82.5392	74.707	84.1892	74.707	82.5603	74.707	84.1598	74.707	82.599	74.707	84.0981	74.707	82.6535	74.707	84.0082	74.707	82.722	74.707	83.8957	74.707	82.803	74.707	83.7678	74.707	82.8951	74.707	83.6315	74.707	82.9974	74.707	83.4934	74.707	83.109	74.707	83.3583	74.707	83.2296
77.6367	83.4191	77.6367	83.2686	77.6367	83.5756	77.6367	83.1296	77.6367	83.7321	77.6367	83.0064	77.6367	83.8822	77.6367	82.9024	77.6367	84.0192	77.6367	82.8195	77.6367	84.137	77.6367	82.7586	77.6367	84.2297	77.6367	82.7196	77.6367	84.2925	77.6367	82.7012	77.6367	84.3217	77.6367	82.7017	77.6367	84.3153	77.6367	82.7191	77.6367	84.2733	77.6367	82.7511	77.6367	84.198	77.6367	82.7957	77.6367	84.0939	77.6367	82.8512	77.6367	83.9679	77.6367	82.9166	77.6367	83.828	77.6367	82.9918	77.6367	83.6829	77.6367	83.0772	77.6367	83.5403	77.6367	83.174	77.6367	83.406	77.6367	83.2835
79.1016	83.4381	79.1016	83.286	79.1016	83.5953	79.1016	83.1443	79.1016	83.7514	79.1016	83.0178	79.1016	83.9001	79.1016	82.9099	79.1016	84.0348	79.1016	82.823	79.1016	84.1494	79.1016	82.7583	79.1016	84.2385	79.1016	82.7158	79.1016	84.2972	79.1016	82.6944	79.1016	84.3223	79.1016	82.6925	79.1016	84.3117	79.1016	82.7079	79.1016	84.2658	79.1016	82.7384	79.1016	84.1869	79.1016	82.7816	79.1016	84.0799	79.1016	82.836	79.1016	83.9515	79.1016	82.9003	79.1016	83.8099	79.1016	82.9744	79.1016	83.6636	79.1016	83.0588	79.1016	83.5203	79.1016	83.1548	79.1016	83.3859	79.1016	83.2637
82.0312	83.5824	82.0312	83.4309	82.0312	83.7378	82.0312	83.289	82.0312	83.8909	82.0312	83.1613	82.0312	84.0356	82.0312	83.0517	82.0312	84.1656	82.0312	82.9627	82.0312	84.2749	82.0312	82.8958	82.0312	84.3585	82.0312	82.8509	82.0312	84.412	82.0312	82.8272	82.0312	84.4323	82.0312	82.8231	82.0312	84.4177	82.0312	82.8361	82.0312	84.3685	82.0312	82.8639	82.0312	84.287	82.0312	82.904	82.0312	84.1779	82.0312	82.9547	82.0312	84.048	82.0312	83.0148	82.0312	83.9054	82.0312	83.0845	82.0312	83.7586	82.0312	83.1645	82.0312	83.6156	82.0312	83.2566	82.0312	83.4823	82.0312	83.3622
84.9609	83.6184	84.9609	83.4738	84.9609	83.7662	84.9609	83.3377	84.9609	83.9121	84.9609	83.2145	84.9609	84.0508	84.9609	83.1081	84.9609	84.1771	84.9609	83.0216	84.9609	84.2861	84.9609	82.9568	84.9609	84.3731	84.9609	82.9144	84.9609	84.4339	84.9609	82.894	84.9609	84.4651	84.9609	82.8942	84.9609	84.4646	84.9609	82.913	84.9609	84.432	84.9609	82.948	84.9609	84.3688	84.9609	82.9968	84.9609	84.2785	84.9609	83.0574	84.9609	84.1666	84.9609	83.1285	84.9609	84.0397	84.9609	83.2096	84.9609	83.905	84.9609	83.3007	84.9609	83.7692	84.9609	83.4024	84.9609	83.6379	84.9609	83.5149
87.8906	83.523	87.8906	83.3681	87.8906	83.6856	87.8906	83.2262	87.8906	83.8502	87.8906	83.1018	87.8906	84.0104	87.8906	82.9989	87.8906	84.1597	87.8906	82.9203	87.8906	84.2918	87.8906	82.8679	87.8906	84.4003	87.8906	82.8422	87.8906	84.4799	87.8906	82.8424	87.8906	84.527	87.8906	82.8666	87.8906	84.5397	87.8906	82.9123	87.8906	84.5187	87.8906	82.9759	87.8906	84.4669	87.8906	83.0543	87.8906	84.389	87.8906	83.144	87.8906	84.291	87.8906	83.2425	87.8906	84.1793	87.8906	83.3476	87.8906	84.0595	87.8906	83.458	87.8906	83.9363	87.8906	83.5727	87.8906	83.8128	87.8906	83.6913
90.8203	84.2278	90.8203	84.0634	90.8203	84.3866	90.8203	83.8995	90.8203	84.5334	90.8203	83.7417	90.8203	84.6613	90.8203	83.5945	90.8203	84.764	90.8203	83.4614	90.8203	84.8355	90.8203	83.345	90.8203	84.8713	90.8203	83.2469	90.8203	84.8679	90.8203	83.168	90.8203	84.8239	90.8203	83.1085	90.8203	84.7402	90.8203	83.0678	90.8203	84.6203	90.8203	83.0452	90.8203	84.4703	90.8203	83.0398	90.8203	84.2987	90.8203	83.0507	90.8203	84.1158	90.8203	83.0773	90.8203	83.9324	90.8203	83.1193	90.8203	83.7582	90.8203	83.1775	90.8203	83.6003	90.8203	83.2529	90.8203	83.463	90.8203	83.3475
95.2148	83.9611	95.2148	83.8081	95.2148	84.1157	95.2148	83.6633	95.2148	84.2654	95.2148	83.5328	95.2148	84.4042	95.2148	83.422	95.2148	84.5263	95.2148	83.335	95.2148	84.6266	95.2148	83.2743	95.2148	84.7006	95.2148	83.2402	95.2148	84.745	95.2148	83.2317	95.2148	84.7576	95.2148	83.2457	95.2148	84.7382	95.2148	83.2787	95.2148	84.6883	95.2148	83.3262	95.2148	84.6119	95.2148	83.3842	95.2148	84.5145	95.2148	83.4493	95.2148	84.4031	95.2148	83.5194	95.2148	84.2847	95.2148	83.5934	95.2148	84.1657	95.2148	83.6715	95.2148	84.0512	95.2148	83.755	95.2148	83.944	95.2148	83.8454
98.1445	84.1034	98.1445	83.9501	98.1445	84.2584	98.1445	83.8048	98.1445	84.4081	98.1445	83.6736	98.1445	84.5459	98.1445	83.5614	98.1445	84.6651	98.1445	83.4718	98.1445	84.76	98.1445	83.4068	98.1445	84.8255	98.1445	83.3669	98.1445	84.858	98.1445	83.3508	98.1445	84.8556	98.1445	83.356	98.1445	84.8185	98.1445	83.3789	98.1445	84.7493	98.1445	83.4155	98.1445	84.6529	98.1445	83.462	98.1445	84.5366	98.1445	83.515	98.1445	84.4088	98.1445	83.5723	98.1445	84.2784	98.1445	83.6329	98.1445	84.1529	98.1445	83.6974	98.1445	84.0377	98.1445	83.7675	98.1445	83.9353	98.1445	83.8459
101.074	83.9371	101.074	83.7799	101.074	84.0964	101.074	83.6316	101.074	84.2508	101.074	83.4988	101.074	84.3937	101.074	83.3875	101.074	84.519	101.074	83.3024	101.074	84.6215	101.074	83.2465	101.074	84.6972	101.074	83.2211	101.074	84.7433	101.074	83.2254	101.074	84.7589	101.074	83.2568	101.074	84.745	101.074	83.3111	101.074	84.7044	101.074	83.3831	101.074	84.6417	101.074	83.4676	101.074	84.5628	101.074	83.5592	101.074	84.4738	101.074	83.6537	101.074	84.3803	101.074	83.7479	101.074	84.2866	101.074	83.8401	101.074	84.1949	101.074	83.9298	101.074	84.1056	101.074	84.0178
105.469	84.4027	105.469	84.2327	105.469	84.5645	105.469	84.0622	105.469	84.7112	105.469	83.8992	105.469	84.8366	105.469	83.7512	105.469	84.9354	105.469	83.6251	105.469	85.0037	105.469	83.5263	105.469	85.0386	105.469	83.4581	105.469	85.0389	105.469	83.4215	105.469	85.0054	105.469	83.4149	105.469	84.9411	105.469	83.4349	105.469	84.8509	105.469	83.4765	105.469	84.7419	105.469	83.5339	105.469	84.6219	105.469	83.6017	105.469	84.4989	105.469	83.6753	105.469	84.3793	105.469	83.7514	105.469	84.2676	105.469	83.8284	105.469	84.1655	105.469	83.9065	105.469	84.0727	105.469	83.9872
108.398	84.5716	108.398	84.4063	108.398	84.7288	108.398	84.2401	108.398	84.8703	108.398	84.0803	108.398	84.9891	108.398	83.9332	108.398	85.0787	108.398	83.8048	108.398	85.134	108.398	83.6994	108.398	85.1512	108.398	83.6204	108.398	85.1291	108.398	83.569	108.398	85.0689	108.398	83.545	108.398	84.9747	108.398	83.5462	108.398	84.854	108.398	83.569	108.398	84.7164	108.398	83.6086	108.398	84.573	108.398	83.66	108.398	84.4345	108.398	83.7183	108.398	84.3092	108.398	83.7797	108.398	84.2011	108.398	83.8417	108.398	84.1105	108.398	83.9034	108.398	84.0338	108.398	83.9664
112.793	84.7195	112.793	84.5616	112.793	84.8686	112.793	84.4021	112.793	85.0021	112.793	84.248	112.793	85.1133	112.793	84.1057	112.793	85.1965	112.793	83.9806	112.793	85.247	112.793	83.8773	112.793	85.2616	112.793	83.7984	112.793	85.2391	112.793	83.7452	112.793	85.1804	112.793	83.7171	112.793	85.0892	112.793	83.7121	112.793	84.972	112.793	83.7267	112.793	84.8377	112.793	83.757	112.793	84.6965	112.793	83.7985	112.793	84.5585	112.793	83.8475	112.793	84.4317	112.793	83.9008	112.793	84.3206	112.793	83.9566	112.793	84.2262	112.793	84.015	112.793	84.1463	112.793	84.0772
117.188	84.9487	117.188	84.7826	117.188	85.1009	117.188	84.6099	117.188	85.2318	117.188	84.4376	117.188	85.3346	117.188	84.2724	117.188	85.403	117.188	84.1205	117.188	85.4318	117.188	83.9869	117.188	85.4177	117.188	83.876	117.188	85.3594	117.188	83.7904	117.188	85.2587	117.188	83.7314	117.188	85.1207	117.188	83.6981	117.188	84.9546	117.188	83.6883	117.188	84.7727	117.188	83.6983	117.188	84.5895	117.188	83.7233	117.188	84.4191	117.188	83.7587	117.188	84.2722	117.188	83.8	117.188	84.1538	117.188	83.8439	117.188	84.0628	117.188	83.8894	117.188	83.9933	117.188	83.9377
120.117	85.1442	120.117	84.9822	120.117	85.2902	120.117	84.8111	120.117	85.4134	120.117	84.6375	120.117	85.5075	120.117	84.4673	120.117	85.5663	120.117	84.3062	120.117	85.5848	120.117	84.1587	120.117	85.5589	120.117	84.0287	120.117	85.486	120.117	83.919	120.117	85.3663	120.117	83.8315	120.117	85.2031	120.117	83.7664	120.117	85.0038	120.117	83.7229	120.117	84.781	120.117	83.6986	120.117	84.5511	120.117	83.6901	120.117	84.3329	120.117	83.6931	120.117	84.1431	120.117	83.7036	120.117	83.9928	120.117	83.719	120.117	83.8845	120.117	83.7392	120.117	83.8129	120.117	83.7679
124.512	85.0641	124.512	84.9098	124.512	85.2072	124.512	84.7507	124.512	85.3329	124.512	84.5936	124.512	85.4361	124.512	84.4447	124.512	85.5124	124.512	84.3092	124.512	85.5577	124.512	84.1908	124.512	85.569	124.512	84.0915	124.512	85.5435	124.512	84.0116	124.512	85.4797	124.512	83.95	124.512	85.3777	124.512	83.9048	124.512	85.2399	124.512	83.8735	124.512	85.0718	124.512	83.8539	124.512	84.8824	124.512	83.8439	124.512	84.6839	124.512	83.8428	124.512	84.4899	124.512	83.8511	124.512	84.3137	124.512	83.871	124.512	84.165	124.512	83.9068	124.512	84.0486	124.512	83.964
128.906	84.8194	128.906	84.641	128.906	84.9914	128.906	84.4644	128.906	85.1496	128.906	84.2981	128.906	85.2873	128.906	84.1508	128.906	85.3985	128.906	84.0302	128.906	85.478	128.906	83.9421	128.906	85.5216	128.906	83.8896	128.906	85.5269	128.906	83.8727	128.906	85.4933	128.906	83.888	128.906	85.423	128.906	83.9298	128.906	85.3211	128.906	83.9905	128.906	85.1955	128.906	84.0621	128.906	85.0566	128.906	84.137	128.906	84.9159	128.906	84.2092	128.906	84.7842	128.906	84.275	128.906	84.6696	128.906	84.3336	128.906	84.5756	128.906	84.3871	128.906	84.501	128.906	84.4406
133.301	85.1164	133.301	84.9321	133.301	85.2913	133.301	84.7471	133.301	85.4482	133.301	84.5699	133.301	85.5792	133.301	84.4085	133.301	85.6777	133.301	84.2691	133.301	85.7384	133.301	84.1567	133.301	85.7584	133.301	84.0739	133.301	85.7363	133.301	84.021	133.301	85.6734	133.301	83.9962	133.301	85.5729	133.301	83.9957	133.301	85.4407	133.301	84.0144	133.301	85.2848	133.301	84.047	133.301	85.1153	133.301	84.0879	133.301	84.9434	133.301	84.1327	133.301	84.7802	133.301	84.179	133.301	84.6348	133.301	84.2265	133.301	84.5127	133.301	84.2781	133.301	84.4151	133.301	84.3388
139.16	85.2234	139.16	85.0348	139.16	85.3967	139.16	84.8401	139.16	85.5466	139.16	84.649	139.16	85.6666	139.16	84.4711	139.16	85.7516	139.16	84.315	139.16	85.7984	139.16	84.1876	139.16	85.8055	139.16	84.093	139.16	85.7729	139.16	84.0327	139.16	85.7027	139.16	84.0049	139.16	85.5986	139.16	84.0056	139.16	85.4669	139.16	84.0291	139.16	85.3157	139.16	84.0689	139.16	85.155	139.16	84.119	139.16	84.995	139.16	84.1744	139.16	84.845	139.16	84.2321	139.16	84.7113	139.16	84.2913	139.16	84.5972	139.16	84.3536	139.16	84.5019	139.16	84.4222
143.555	85.2453	143.555	85.0624	143.555	85.4122	143.555	84.8727	143.555	85.5551	143.555	84.6864	143.555	85.6674	143.555	84.5135	143.555	85.7447	143.555	84.3633	143.555	85.7839	143.555	84.2427	143.555	85.7839	143.555	84.1561	143.555	85.7453	143.555	84.1043	143.555	85.6708	143.555	84.0849	143.555	85.5649	143.555	84.093	143.555	85.4346	143.555	84.122	143.555	85.2886	143.555	84.1647	143.555	85.1369	143.555	84.2148	143.555	84.9891	143.555	84.2676	143.555	84.8533	143.555	84.3203	143.555	84.7346	143.555	84.3726	143.555	84.6349	143.555	84.4262	143.555	84.5528	143.555	84.4848
147.949	85.2638	147.949	85.0627	147.949	85.444	147.949	84.8504	147.949	85.5953	147.949	84.6378	147.949	85.7113	147.949	84.4365	147.949	85.7875	147.949	84.2576	147.949	85.8212	147.949	84.1106	147.949	85.8115	147.949	84.0022	147.949	85.7592	147.949	83.9351	147.949	85.6677	147.949	83.9077	147.949	85.5423	147.949	83.9149	147.949	85.3911	147.949	83.9487	147.949	85.2245	147.949	84.0006	147.949	85.0542	147.949	84.062	147.949	84.8917	147.949	84.1265	147.949	84.7461	147.949	84.1897	147.949	84.6224	147.949	84.2503	147.949	84.5212	147.949	84.3093	147.949	84.4391	147.949	84.3705
153.809	85.3515	153.809	85.1462	153.809	85.5305	153.809	84.9235	153.809	85.6759	153.809	84.694	153.809	85.7823	153.809	84.4692	153.809	85.8464	153.809	84.2612	153.809	85.8664	153.809	84.0813	153.809	85.8423	153.809	83.9393	153.809	85.776	153.809	83.842	153.809	85.6715	153.809	83.7918	153.809	85.5354	153.809	83.7869	153.809	85.3772	153.809	83.8209	153.809	85.2086	153.809	83.8846	153.809	85.0421	153.809	83.9674	153.809	84.8891	153.809	84.0594	153.809	84.7565	153.809	84.1524	153.809	84.6462	153.809	84.2413	153.809	84.5546	153.809	84.3236	153.809	84.4752	153.809	84.4003
159.668	85.5445	159.668	85.3517	159.668	85.7149	159.668	85.1456	159.668	85.8553	159.668	84.9365	159.668	85.9602	159.668	84.7349	159.668	86.0259	159.668	84.5504	159.668	86.0508	159.668	84.391	159.668	86.035	159.668	84.2625	159.668	85.9803	159.668	84.1683	159.668	85.8906	159.668	84.1092	159.668	85.7714	159.668	84.0841	159.668	85.63	159.668	84.0903	159.668	85.4755	159.668	84.1233	159.668	85.3173	159.668	84.178	159.668	85.1644	159.668	84.2486	159.668	85.0235	159.668	84.3293	159.668	84.8978	159.668	84.4153	159.668	84.7866	159.668	84.5037	159.668	84.6867	159.668	84.5936
165.527	85.3772	165.527	85.1776	165.527	85.5572	165.527	84.9704	165.527	85.7073	165.527	84.7686	165.527	85.8194	165.527	84.5851	165.527	85.8877	165.527	84.4312	165.527	85.91	165.527	84.3156	165.527	85.8868	165.527	84.243	165.527	85.8222	165.527	84.2132	165.527	85.7231	165.527	84.2225	165.527	85.5988	165.527	84.2638	165.527	85.4608	165.527	84.3284	165.527	85.3216	165.527	84.4073	165.527	85.193	165.527	84.4925	165.527	85.0843	165.527	84.5767	165.527	85.0001	165.527	84.6545	165.527	84.9391	165.527	84.7221	165.527	84.8951	165.527	84.7778	165.527	84.8591	165.527	84.8222
171.387	85.7386	171.387	85.5327	171.387	85.9164	171.387	85.3109	171.387	86.0555	171.387	85.0861	171.387	86.1478	171.387	84.8715	171.387	86.1879	171.387	84.6792	171.387	86.1735	171.387	84.5195	171.387	86.1056	171.387	84.3998	171.387	85.9884	171.387	84.3235	171.387	85.8294	171.387	84.2897	171.387	85.6393	171.387	84.2941	171.387	85.4327	171.387	84.3289	171.387	85.2274	171.387	84.3848	171.387	85.0424	171.387	84.4518	171.387	84.8937	171.387	84.5203	171.387	84.7897	171.387	84.5819	171.387	84.7289	171.387	84.6306	171.387	84.7007	171.387	84.6633	171.387	84.6897	171.387	84.681
177.246	85.7214	177.246	85.5132	177.246	85.8938	177.246	85.2786	177.246	86.0237	177.246	85.0299	177.246	86.1073	177.246	84.7812	177.246	86.1426	177.246	84.5471	177.246	86.1297	177.246	84.341	177.246	86.0694	177.246	84.1738	177.246	85.9634	177.246	84.0517	177.246	85.8142	177.246	83.9765	177.246	85.6264	177.246	83.9448	177.246	85.4074	177.246	83.9495	177.246	85.1697	177.246	83.9807	177.246	84.9308	177.246	84.0275	177.246	84.711	177.246	84.0796	177.246	84.5288	177.246	84.1286	177.246	84.3946	177.246	84.1689	177.246	84.3074	177.246	84.1996	177.246	84.2562	177.246	84.2253
183.105	85.4	183.105	85.2056	183.105	85.5672	183.105	84.9945	183.105	85.6989	183.105	84.779	183.105	85.79	183.105	84.5722	183.105	85.8388	183.105	84.3864	183.105	85.8474	183.105	84.2314	183.105	85.8212	183.105	84.113	183.105	85.767	183.105	84.0324	183.105	85.6908	183.105	83.9867	183.105	85.5967	183.105	83.9707	183.105	85.4862	183.105	83.9785	183.105	85.3596	183.105	84.0047	183.105	85.2183	183.105	84.0453	183.105	85.0663	183.105	84.0971	183.105	84.9107	183.105	84.1583	183.105	84.7603	183.105	84.228	183.105	84.6224	183.105	84.3068	183.105	84.5012	183.105	84.3968
188.965	85.6391	188.965	85.4224	188.965	85.8088	188.965	85.1724	188.965	85.9218	188.965	84.9062	188.965	85.9726	188.965	84.6434	188.965	85.9611	188.965	84.4047	188.965	85.8924	188.965	84.2098	188.965	85.7764	188.965	84.0735	188.965	85.6267	188.965	84.0023	188.965	85.4597	188.965	83.9928	188.965	85.2931	188.965	84.0336	188.965	85.1437	188.965	84.1086	188.965	85.024	188.965	84.2019	188.965	84.9395	188.965	84.3008	188.965	84.8867	188.965	84.3972	188.965	84.8547	188.965	84.4873	188.965	84.8301	188.965	84.5697	188.965	84.8011	188.965	84.6438	188.965	84.7611	188.965	84.7082
196.289	85.7861	196.289	85.5856	196.289	85.9453	196.289	85.3555	196.289	86.0547	196.289	85.1098	196.289	86.1101	196.289	84.8636	196.289	86.1107	196.289	84.6319	196.289	86.0595	196.289	84.4284	196.289	85.9613	196.289	84.264	196.289	85.8224	196.289	84.1449	196.289	85.6491	196.289	84.0724	196.289	85.4488	196.289	84.0428	196.289	85.2312	196.289	84.0479	196.289	85.0094	196.289	84.0777	196.289	84.8002	196.289	84.1213	196.289	84.6209	196.289	84.1692	196.289	84.4842	196.289	84.2141	196.289	84.3933	196.289	84.2508	196.289	84.3412	196.289	84.2777	196.289	84.3139	196.289	84.2966
203.613	85.7853	203.613	85.587	203.613	85.9314	203.613	85.3482	203.613	86.0171	203.613	85.0832	203.613	86.0384	203.613	84.8087	203.613	85.9961	203.613	84.5431	203.613	85.8962	203.613	84.3052	203.613	85.7482	203.613	84.1117	203.613	85.5644	203.613	83.9744	203.613	85.3572	203.613	83.8973	203.613	85.1392	203.613	83.8758	203.613	84.9226	203.613	83.8988	203.613	84.7206	203.613	83.9512	203.613	84.5466	203.613	84.018	203.613	84.4121	203.613	84.0866	203.613	84.3224	203.613	84.1478	203.613	84.274	203.613	84.1959	203.613	84.2552	203.613	84.2279	203.613	84.2502	203.613	84.2445
210.938	85.7548	210.938	85.6008	210.938	85.8656	210.938	85.4104	210.938	85.9285	210.938	85.1928	210.938	85.9414	210.938	84.9595	210.938	85.9048	210.938	84.725	210.938	85.8221	210.938	84.5056	210.938	85.6986	210.938	84.3177	210.938	85.5408	210.938	84.1743	210.938	85.3563	210.938	84.0822	210.938	85.1542	210.938	84.0398	210.938	84.9464	210.938	84.0378	210.938	84.7482	210.938	84.0625	210.938	84.5755	210.938	84.1	210.938	84.441	210.938	84.1392	210.938	84.349	210.938	84.1737	210.938	84.2942	210.938	84.2009	210.938	84.265	210.938	84.2212	210.938	84.2488	210.938	84.2361
218.262	85.4588	218.262	85.2726	218.262	85.6124	218.262	85.0661	218.262	85.7246	218.262	84.8529	218.262	85.791	218.262	84.6462	218.262	85.8123	218.262	84.4576	218.262	85.7933	218.262	84.2965	218.262	85.7395	218.262	84.1693	218.262	85.6553	218.262	84.0795	218.262	85.5424	218.262	84.0275	218.262	85.4014	218.262	84.0101	218.262	85.2349	218.262	84.0214	218.262	85.0509	218.262	84.0537	218.262	84.8644	218.262	84.0991	218.262	84.6946	218.262	84.1503	218.262	84.5583	218.262	84.2018	218.262	84.4621	218.262	84.2497	218.262	84.4005	218.262	84.2914	218.262	84.3601	218.262	84.3269
225.586	85.4638	225.586	85.2442	225.586	85.6366	225.586	84.9913	225.586	85.7535	225.586	84.7223	225.586	85.8108	225.586	84.4578	225.586	85.8107	225.586	84.2199	225.586	85.7609	225.586	84.0298	225.586	85.6724	225.586	83.9032	225.586	85.5569	225.586	83.8469	225.586	85.424	225.586	83.8564	225.586	85.2795	225.586	83.9173	225.586	85.1266	225.586	84.0091	225.586	84.9684	225.586	84.1107	225.586	84.811	225.586	84.2044	225.586	84.6651	225.586	84.2792	225.586	84.5435	225.586	84.3304	225.586	84.4558	225.586	84.3592	225.586	84.4038	225.586	84.3708	225.586	84.3807	225.586	84.3741
232.91	85.0197	232.91	84.827	232.91	85.1594	232.91	84.6002	232.91	85.2364	232.91	84.3643	232.91	85.2528	232.91	84.1444	232.91	85.2206	232.91	83.961	232.91	85.1579	232.91	83.8259	232.91	85.0831	232.91	83.7408	232.91	85.0095	232.91	83.6999	232.91	84.9433	232.91	83.6931	232.91	84.8833	232.91	83.71	232.91	84.8226	232.91	83.7418	232.91	84.7527	232.91	83.782	232.91	84.6683	232.91	83.8264	232.91	84.5695	232.91	83.873	232.91	84.4623	232.91	83.9213	232.91	84.3553	232.91	83.9725	232.91	84.2558	232.91	84.0288	232.91	84.1682	232.91	84.0931
241.699	85.1455	241.699	84.7561	241.699	85.4235	241.699	84.2703	241.699	85.585	241.699	83.7178	241.699	85.631	241.699	83.149	241.699	85.5678	241.699	82.6385	241.699	85.4082	241.699	82.2772	241.699	85.1747	241.699	82.1448	241.699	84.903	241.699	82.2706	241.699	84.6413	241.699	82.6158	241.699	84.4401	241.699	83.0952	241.699	84.337	241.699	83.6179	241.699	84.3436	241.699	84.1138	241.699	84.445	241.699	84.5405	241.699	84.6105	241.699	84.8783	241.699	84.8057	241.699	85.1228	241.699	84.9994	241.699	85.2784	241.699	85.1664	241.699	85.3527	241.699	85.2887	241.699	85.3537
250.488	86.9701	250.488	86.6535	250.488	87.1861	250.488	86.2484	250.488	87.2925	250.488	85.7701	250.488	87.2837	250.488	85.2383	250.488	87.1578	250.488	84.6791	250.488	86.9184	250.488	84.1281	250.488	86.5758	250.488	83.6324	250.488	86.15	250.488	83.2488	250.488	85.6751	250.488	83.0317	250.488	85.2017	250.488	83.012	250.488	84.7936	250.488	83.1787	250.488	84.5124	250.488	83.4819	250.488	84.3923	250.488	83.853	250.488	84.4234	250.488	84.2274	250.488	84.5578	250.488	84.5566	250.488	84.7337	250.488	84.8099	250.488	84.8962	250.488	84.9709	250.488	85.0049	250.488	85.0344
259.277	86.8704	259.277	86.5862	259.277	87.0533	259.277	86.2081	259.277	87.1326	259.277	85.751	259.277	87.1105	259.277	85.2388	259.277	86.9925	259.277	84.7072	259.277	86.7854	259.277	84.2031	259.277	86.4969	259.277	83.7803	259.277	86.1353	259.277	83.4874	259.277	85.7135	259.277	83.3531	259.277	85.2541	259.277	83.3757	259.277	84.7953	259.277	83.5256	259.277	84.3928	259.277	83.7575	259.277	84.1106	259.277	84.0243	259.277	83.9949	259.277	84.2848	259.277	84.0459	259.277	84.5061	259.277	84.2133	259.277	84.6626	259.277	84.4222	259.277	84.7359	259.277	84.6045	259.277	84.7159
268.066	86.9381	268.066	86.635	268.066	87.1337	268.066	86.2301	268.066	87.2216	268.066	85.7345	268.066	87.2064	268.066	85.1653	268.066	87.0959	268.066	84.5473	268.066	86.8985	268.066	83.917	268.066	86.6218	268.066	83.3266	268.066	86.2736	268.066	82.8441	268.066	85.8649	268.066	82.5393	268.066	85.4134	268.066	82.4555	268.066	84.9483	268.066	82.584	268.066	84.5131	268.066	82.8654	268.066	84.1633	268.066	83.2194	268.066	83.9497	268.066	83.5737	268.066	83.8909	268.066	83.8773	268.066	83.9571	268.066	84.1001	268.066	84.0832	268.066	84.2278	268.066	84.2003	268.066	84.2578
276.855	86.6593	276.855	86.3672	276.855	86.8493	276.855	85.984	276.855	86.9338	276.855	85.5286	276.855	86.9138	276.855	85.0281	276.855	86.7931	276.855	84.5139	276.855	86.579	276.855	84.0169	276.855	86.2851	276.855	83.5626	276.855	85.9342	276.855	83.1697	276.855	85.5584	276.855	82.8539	276.855	85.1929	276.855	82.6323	276.855	84.864	276.855	82.5239	276.855	84.5813	276.855	82.5415	276.855	84.3402	276.855	82.6781	276.855	84.1351	276.855	82.9011	276.855	83.9705	276.855	83.159	276.855	83.8566	276.855	83.3986	276.855	83.7922	276.855	83.5813	276.855	83.7519	276.855	83.694
287.109	86.4212	287.109	86.1904	287.109	86.566	287.109	85.875	287.109	86.6254	287.109	85.4807	287.109	86.6006	287.109	85.02	287.109	86.4924	287.109	84.5149	287.109	86.3011	287.109	84.0012	287.109	86.0281	287.109	83.5287	287.109	85.6787	287.109	83.155	287.109	85.2664	287.109	82.9284	287.109	84.8205	287.109	82.8671	287.109	84.3949	287.109	82.952	287.109	84.0654	287.109	83.14	287.109	83.9024	287.109	83.385	287.109	83.924	287.109	83.6502	287.109	84.0762	287.109	83.9095	287.109	84.267	287.109	84.1422	287.109	84.4162	287.109	84.3284	287.109	84.4798	287.109	84.4472
297.363	86.8759	297.363	86.6623	297.363	86.9778	297.363	86.3461	297.363	86.9602	297.363	85.9369	297.363	86.8202	297.363	85.4464	297.363	86.5638	297.363	84.8912	297.363	86.2093	297.363	84.2986	297.363	85.7858	297.363	83.7108	297.363	85.3287	297.363	83.1859	297.363	84.8727	297.363	82.79	297.363	84.4476	297.363	82.5757	297.363	84.0803	297.363	82.5596	297.363	83.8019	297.363	82.715	297.363	83.6472	297.363	82.987	297.363	83.6368	297.363	83.314	297.363	83.7542	297.363	83.642	297.363	83.9412	297.363	83.9272	297.363	84.1224	297.363	84.1354	297.363	84.2344	297.363	84.2416
307.617	86.7299	307.617	86.4163	307.617	86.9526	307.617	86.0315	307.617	87.0687	307.617	85.5968	307.617	87.068	307.617	85.1328	307.617	86.9455	307.617	84.6584	307.617	86.7009	307.617	84.1911	307.617	86.3375	307.617	83.7502	307.617	85.8626	307.617	83.36	307.617	85.2905	307.617	83.0505	307.617	84.6475	307.617	82.8521	307.617	83.9811	307.617	82.7839	307.617	83.3685	307.617	82.842	307.617	82.9128	307.617	82.998	307.617	82.7043	307.617	83.2074	307.617	82.7586	307.617	83.4213	307.617	82.9947	307.617	83.594	307.617	83.2874	307.617	83.6865	307.617	83.5317	307.617	83.6699
319.336	86.7349	319.336	86.4126	319.336	86.9524	319.336	85.9967	319.336	87.0563	319.336	85.5026	319.336	87.0413	319.336	84.953	319.336	86.906	319.336	84.3814	319.336	86.6539	319.336	83.8348	319.336	86.2913	319.336	83.3698	319.336	85.8245	319.336	83.0381	319.336	85.26	319.336	82.8662	319.336	84.6152	319.336	82.8437	319.336	83.9424	319.336	82.9314	319.336	83.3519	319.336	83.0837	319.336	82.9909	319.336	83.2653	319.336	82.9454	319.336	83.4548	319.336	83.1548	319.336	83.6378	319.336	83.4637	319.336	83.7985	319.336	83.7364	319.336	83.9147	319.336	83.9056	319.336	83.9595
329.59	86.3354	329.59	86.0966	329.59	86.4944	329.59	85.7919	329.59	86.5612	329.59	85.4299	329.59	86.531	329.59	85.0122	329.59	86.4097	329.59	84.5372	329.59	86.2109	329.59	84.0104	329.59	85.9466	329.59	83.4579	329.59	85.6175	329.59	82.9372	329.59	85.2084	329.59	82.5327	329.59	84.6943	329.59	82.3252	329.59	84.0606	329.59	82.3451	329.59	83.338	329.59	82.5517	329.59	82.648	329.59	82.8623	329.59	82.2039	329.59	83.1941	329.59	82.1778	329.59	83.4843	329.59	82.5192	329.59	83.687	329.59	83.0023	329.59	83.7645	329.59	83.4232	329.59	83.6834
341.309	86.4732	341.309	86.1895	341.309	86.632	341.309	85.792	341.309	86.6667	341.309	85.3016	341.309	86.5906	341.309	84.7481	341.309	86.4269	341.309	84.1674	341.309	86.2019	341.309	83.5986	341.309	85.9352	341.309	83.0823	341.309	85.6334	341.309	82.6613	341.309	85.2888	341.309	82.3794	341.309	84.885	341.309	82.2717	341.309	84.4093	341.309	82.3476	341.309	83.8737	341.309	82.5784	341.309	83.3391	341.309	82.9036	341.309	82.9221	341.309	83.2499	341.309	82.747	341.309	83.5493	341.309	82.8495	341.309	83.7472	341.309	83.1376	341.309	83.8052	341.309	83.4626	341.309	83.7057
353.027	86.6683	353.027	86.3601	353.027	86.8408	353.027	85.9313	353.027	86.8742	353.027	85.4069	353.027	86.7779	353.027	84.8209	353.027	86.5737	353.027	84.2121	353.027	86.2929	353.027	83.6169	353.027	85.9685	353.027	83.0639	353.027	85.6251	353.027	82.5741	353.027	85.2682	353.027	82.1707	353.027	84.8799	353.027	81.8889	353.027	84.4267	353.027	81.7713	353.027	83.8883	353.027	81.8417	353.027	83.3	353.027	82.0781	353.027	82.7839	353.027	82.4128	353.027	82.5057	353.027	82.7592	353.027	82.5366	353.027	83.0388	353.027	82.7726	353.027	83.1942	353.027	83.0347	353.027	83.1929
366.211	86.6576	366.211	86.4471	366.211	86.7579	366.211	86.1199	366.211	86.7565	366.211	85.6723	366.211	86.6613	366.211	85.1056	366.211	86.4756	366.211	84.4319	366.211	86.1947	366.211	83.6823	366.211	85.8088	366.211	82.9172	366.211	85.3158	366.211	82.2282	366.211	84.7382	366.211	81.7177	366.211	84.1325	366.211	81.4544	366.211	83.5749	366.211	81.4354	366.211	83.1246	366.211	81.5954	366.211	82.7952	366.211	81.85	366.211	82.5676	366.211	82.1292	366.211	82.4299	366.211	82.3827	366.211	82.3909	366.211	82.5716	366.211	82.4494	366.211	82.6658	366.211	82.5618	366.211	82.6546
379.395	86.6161	379.395	86.3527	379.395	86.782	379.395	85.9993	379.395	86.8484	379.395	85.5656	379.395	86.8194	379.395	85.0589	379.395	86.7001	379.395	84.4837	379.395	86.4907	379.395	83.8479	379.395	86.1842	379.395	83.1779	379.395	85.7699	379.395	82.5371	379.395	85.2406	379.395	82.0318	379.395	84.5991	379.395	81.7729	379.395	83.87	379.395	81.8006	379.395	83.124	379.395	82.0497	379.395	82.5075	379.395	82.4036	379.395	82.2119	379.395	82.7649	379.395	82.32	379.395	83.0798	379.395	82.6949	379.395	83.3237	379.395	83.1051	379.395	83.4775	379.395	83.3938	379.395	83.5126
392.578	86.2719	392.578	85.9462	392.578	86.4873	392.578	85.5318	392.578	86.5789	392.578	85.0596	392.578	86.5381	392.578	84.5649	392.578	86.3604	392.578	84.0745	392.578	86.0499	392.578	83.5954	392.578	85.6263	392.578	83.1143	392.578	85.1282	392.578	82.6177	392.578	84.6055	392.578	82.1224	392.578	84.1008	392.578	81.7003	392.578	83.6292	392.578	81.4684	392.578	83.178	392.578	81.5218	392.578	82.7373	392.578	81.8522	392.578	82.3538	392.578	82.3439	392.578	82.1549	392.578	82.8464	392.578	82.2602	392.578	83.2326	392.578	82.6267	392.578	83.416	392.578	83.0558	392.578	83.3525
405.762	86.5104	405.762	86.2735	405.762	86.603	405.762	85.8984	405.762	86.5503	405.762	85.3933	405.762	86.3631	405.762	84.7693	405.762	86.0696	405.762	84.0446	405.762	85.7133	405.762	83.252	405.762	85.3387	405.762	82.4483	405.762	84.9701	405.762	81.7204	405.762	84.5984	405.762	81.1724	405.762	84.1901	405.762	80.8891	405.762	83.7171	405.762	80.8957	405.762	83.1923	405.762	81.1505	405.762	82.6952	405.762	81.5713	405.762	82.3563	405.762	82.0653	405.762	82.2792	405.762	82.543	405.762	82.4528	405.762	82.9253	405.762	82.755	405.762	83.1511	405.762	83.0365	405.762	83.1866
420.41	86.5159	420.41	86.3744	420.41	86.5115	420.41	86.0797	420.41	86.3791	420.41	85.635	420.41	86.1486	420.41	85.0567	420.41	85.8606	420.41	84.376	420.41	85.5603	420.41	83.6386	420.41	85.2802	420.41	82.9005	420.41	85.0201	420.41	82.2219	420.41	84.7382	420.41	81.6602	420.41	84.3679	420.41	81.2645	420.41	83.8585	420.41	81.0686	420.41	83.2268	420.41	81.0817	420.41	82.5936	420.41	81.2834	420.41	82.154	420.41	81.6239	420.41	82.0397	420.41	82.0279	420.41	82.1996	420.41	82.4049	420.41	82.4667	420.41	82.6701	420.41	82.6873	420.41	82.768
435.059	86.3883	435.059	86.1035	435.059	86.5186	435.059	85.6699	435.059	86.5063	435.059	85.1032	435.059	86.3832	435.059	84.4277	435.059	86.195	435.059	83.6798	435.059	85.9825	435.059	82.9164	435.059	85.7648	435.059	82.2181	435.059	85.5277	435.059	81.678	435.059	85.2201	435.059	81.3661	435.059	84.7648	435.059	81.2912	435.059	84.0948	435.059	81.4074	435.059	83.219	435.059	81.6572	435.059	82.3175	435.059	81.9957	435.059	81.7711	435.059	82.3822	435.059	81.849	435.059	82.7648	435.059	82.3438	435.059	83.0835	435.059	82.8639	435.059	83.2863	435.059	83.205	435.059	83.3368
451.172	86.6729	451.172	86.2896	451.172	86.9028	451.172	85.7672	451.172	86.9682	451.172	85.129	451.172	86.8562	451.172	84.4035	451.172	86.5587	451.172	83.6092	451.172	86.0892	451.172	82.7455	451.172	85.4989	451.172	81.8064	451.172	84.8812	451.172	80.8186	451.172	84.3508	451.172	79.8905	451.172	83.9765	451.172	79.2423	451.172	83.6921	451.172	79.1168	451.172	83.2919	451.172	79.5466	451.172	82.5498	451.172	80.305	451.172	81.3895	451.172	81.1289	451.172	80.153	451.172	81.8502	451.172	79.7542	451.172	82.3631	451.172	80.5351	451.172	82.5651	451.172	81.621	451.172	82.3426
465.82	86.4597	465.82	86.0834	465.82	86.6266	465.82	85.5153	465.82	86.5914	465.82	84.7931	465.82	86.3872	465.82	83.969	465.82	86.0671	465.82	83.0964	465.82	85.6851	465.82	82.2137	465.82	85.2699	465.82	81.3401	465.82	84.8152	465.82	80.5028	465.82	84.2987	465.82	79.7872	465.82	83.7194	465.82	79.3542	465.82	83.1241	465.82	79.3498	465.82	82.602	465.82	79.7663	465.82	82.2323	465.82	80.4396	465.82	82.0167	465.82	81.1665	465.82	81.8872	465.82	81.7817	465.82	81.8048	465.82	82.1737	465.82	81.8165	465.82	82.295	465.82	81.968	465.82	82.1828
483.398	86.0178	483.398	85.8905	483.398	85.9551	483.398	85.5925	483.398	85.7092	483.398	85.1623	483.398	85.3167	483.398	84.6439	483.398	84.8435	483.398	84.063	483.398	84.3717	483.398	83.4064	483.398	83.9772	483.398	82.6262	483.398	83.7097	483.398	81.6848	483.398	83.579	483.398	80.6388	483.398	83.5458	483.398	79.7304	483.398	83.5266	483.398	79.3295	483.398	83.425	483.398	79.5928	483.398	83.1828	483.398	80.2958	483.398	82.8309	483.398	81.1275	483.398	82.5099	483.398	81.8952	483.398	82.399	483.398	82.4952	483.398	82.5466	483.398	82.8587	483.398	82.8015	483.398	82.9503
499.512	86.5631	499.512	86.2682	499.512	86.6956	499.512	85.8446	499.512	86.6525	499.512	85.3337	499.512	86.449	499.512	84.7706	499.512	86.1242	499.512	84.169	499.512	85.7223	499.512	83.5109	499.512	85.2717	499.512	82.7518	499.512	84.7768	499.512	81.8526	499.512	84.2279	499.512	80.8319	499.512	83.6243	499.512	79.8311	499.512	82.9971	499.512	79.1693	499.512	82.422	499.512	79.221	499.512	82.0169	499.512	80.0175	499.512	81.9117	499.512	81.1745	499.512	82.1655	499.512	82.2975	499.512	82.6887	499.512	83.1728	499.512	83.277	499.512	83.7132	499.512	83.7243	499.512	83.892
517.09	86.2913	517.09	86.0532	517.09	86.2779	517.09	85.6064	517.09	86.0152	517.09	85.0301	517.09	85.5567	517.09	84.425	517.09	85.0088	517.09	83.8831	517.09	84.516	517.09	83.4461	517.09	84.2124	517.09	83.0784	517.09	84.1384	517.09	82.678	517.09	84.1895	517.09	82.1221	517.09	84.1634	517.09	81.3317	517.09	83.8584	517.09	80.3627	517.09	83.159	517.09	79.5245	517.09	82.1244	517.09	79.3466	517.09	81.1183	517.09	80.0475	517.09	80.7602	517.09	81.2039	517.09	81.2682	517.09	82.2811	517.09	82.15	517.09	82.9788	517.09	82.8745	517.09	83.1802
536.133	87.2355	536.133	86.8182	536.133	87.3076	536.133	86.1006	536.133	87.03	536.133	85.1743	536.133	86.4283	536.133	84.1774	536.133	85.5399	536.133	83.2667	536.133	84.4201	536.133	82.5595	536.133	83.2273	536.133	82.0802	536.133	82.3423	536.133	81.7586	536.133	82.2007	536.133	81.4705	536.133	82.7475	536.133	81.0996	536.133	83.4442	536.133	80.6158	536.133	83.7931	536.133	80.1643	536.133	83.5274	536.133	80.0801	536.133	82.6211	536.133	80.6053	536.133	81.4638	536.133	81.5383	536.133	80.9896	536.133	82.4396	536.133	81.5999	536.133	82.9859	536.133	82.4974	536.133	83.0179
555.176	86.8476	555.176	86.718	555.176	86.6525	555.176	86.2202	555.176	86.2086	555.176	85.3637	555.176	85.5922	555.176	84.2291	555.176	84.8347	555.176	82.9784	555.176	83.9136	555.176	81.8255	555.176	82.8072	555.176	80.9441	555.176	81.5833	555.176	80.3632	555.176	80.4864	555.176	79.9845	555.176	79.9563	555.176	79.7085	555.176	80.3008	555.176	79.5146	555.176	81.2298	555.176	79.4563	555.176	82.1183	555.176	79.6282	555.176	82.508	555.176	80.0983	555.176	82.2489	555.176	80.7904	555.176	81.5778	555.176	81.46	555.176	81.1428	555.176	81.8297	555.176	81.3452	555.176	81.7486
574.219	86.5483	574.219	86.2176	574.219	86.6795	574.219	85.6827	574.219	86.6064	574.219	84.9497	574.219	86.3023	574.219	84.0508	574.219	85.7338	574.219	83.0535	574.219	84.9017	574.219	82.0606	574.219	83.8737	574.219	81.1793	574.219	82.7718	574.219	80.46	574.219	81.7082	574.219	79.8686	574.219	80.7283	574.219	79.333	574.219	79.8585	574.219	78.8184	574.219	79.2818	574.219	78.4074	574.219	79.3258	574.219	78.3479	574.219	79.9353	574.219	78.8725	574.219	80.5978	574.219	79.8402	574.219	80.9984	574.219	80.8137	574.219	81.2289	574.219	81.4425	574.219	81.464	574.219	81.6175
594.727	86.4181	594.727	86.1951	594.727	86.3368	594.727	85.6781	594.727	85.9837	594.727	84.912	594.727	85.4132	594.727	83.9565	594.727	84.667	594.727	82.8755	594.727	83.7794	594.727	81.7379	594.727	82.8378	594.727	80.6226	594.727	82.0202	594.727	79.6195	594.727	81.533	594.727	78.8211	594.727	81.4491	594.727	78.2961	594.727	81.5815	594.727	78.0506	594.727	81.5419	594.727	78.0453	594.727	80.9501	594.727	78.2959	594.727	79.7409	594.727	78.8924	594.727	78.7205	594.727	79.812	594.727	79.1967	594.727	80.8018	594.727	80.5373	594.727	81.549	594.727	81.5199	594.727	81.8351
615.234	86.2482	615.234	86.0966	615.234	86.0316	615.234	85.5685	615.234	85.4909	615.234	84.7003	615.234	84.693	615.234	83.5811	615.234	83.7014	615.234	82.3539	615.234	82.5636	615.234	81.1918	615.234	81.3823	615.234	80.2239	615.234	80.4096	615.234	79.4451	615.234	79.9189	615.234	78.7304	615.234	79.9245	615.234	78.0053	615.234	80.2756	615.234	77.4504	615.234	80.8689	615.234	77.4714	615.234	81.4779	615.234	78.2046	615.234	81.7195	615.234	79.2956	615.234	81.3451	615.234	80.3435	615.234	80.5391	615.234	81.0997	615.234	80.074	615.234	81.3925	615.234	80.4723	615.234	81.1303
637.207	86.8087	637.207	86.3216	637.207	86.9235	637.207	85.4696	637.207	86.732	637.207	84.365	637.207	86.3191	637.207	83.2215	637.207	85.6764	637.207	82.2334	637.207	84.6406	637.207	81.4063	637.207	83.0026	637.207	80.6367	637.207	80.7262	637.207	79.9826	637.207	78.3962	637.207	79.5803	637.207	77.6328	637.207	79.2285	637.207	78.623	637.207	78.4548	637.207	79.6875	637.207	76.9844	637.207	80.2203	637.207	75.4468	637.207	80.455	637.207	75.8765	637.207	80.6168	637.207	78.087	637.207	80.7167	637.207	80.1112	637.207	80.9303	637.207	81.3107	637.207	81.3759	637.207	81.661
659.18	86.7969	659.18	86.5354	659.18	86.7317	659.18	85.919	659.18	86.445	659.18	85.029	659.18	85.9831	659.18	83.9916	659.18	85.2464	659.18	82.8934	659.18	84.1183	659.18	81.7857	659.18	82.6397	659.18	80.7421	659.18	80.9751	659.18	79.8449	659.18	79.2197	659.18	79.1444	659.18	77.4746	659.18	78.6389	659.18	76.4964	659.18	78.2067	659.18	77.0419	659.18	77.6188	659.18	77.8059	659.18	76.8468	659.18	77.7143	659.18	76.5358	659.18	77.4415	659.18	77.5096	659.18	78.2181	659.18	79.1121	659.18	79.4762	659.18	80.2712	659.18	80.3509	659.18	80.6555
682.617	86.3531	682.617	86.0438	682.617	86.3559	682.617	85.4479	682.617	86.0621	682.617	84.5779	682.617	85.517	682.617	83.4671	682.617	84.748	682.617	82.2896	682.617	83.7636	682.617	81.3699	682.617	82.6356	682.617	80.8297	682.617	81.5294	682.617	80.4218	682.617	80.6806	682.617	79.9131	682.617	80.073	682.617	79.3068	682.617	79.2169	682.617	78.6175	682.617	78.2191	682.617	77.6846	682.617	78.5285	682.617	76.6028	682.617	79.7587	682.617	76.3129	682.617	80.0191	682.617	77.489	682.617	78.9659	682.617	79.0768	682.617	78.1888	682.617	80.061	682.617	79.1054	682.617	80.0693
707.52	86.1189	707.52	86.0154	707.52	86.0864	707.52	85.4917	707.52	86.1079	707.52	84.5077	707.52	86.0271	707.52	83.3033	707.52	85.607	707.52	82.1402	707.52	84.8294	707.52	81.0354	707.52	83.7836	707.52	79.9808	707.52	82.3565	707.52	79.3352	707.52	80.3133	707.52	79.2766	707.52	78.0273	707.52	79.3005	707.52	77.0054	707.52	79.0726	707.52	77.0832	707.52	78.6926	707.52	76.2932	707.52	78.1679	707.52	75.2042	707.52	77.4091	707.52	76.2863	707.52	77.1114	707.52	77.5238	707.52	78.1359	707.52	78.0394	707.52	79.3973	707.52	78.9094	707.52	79.6822
732.422	85.7849	732.422	85.5737	732.422	85.6993	732.422	85.0914	732.422	85.3475	732.422	84.4035	732.422	84.7967	732.422	83.5624	732.422	84.0612	732.422	82.6072	732.422	83.0598	732.422	81.6433	732.422	81.7499	732.422	80.7331	732.422	80.2439	732.422	79.8519	732.422	78.6772	732.422	79.1749	732.422	76.9242	732.422	78.8997	732.422	75.6546	732.422	78.7153	732.422	76.8951	732.422	78.1843	732.422	78.2228	732.422	77.3683	732.422	77.6656	732.422	76.7629	732.422	75.7486	732.422	76.8498	732.422	75.2321	732.422	77.5715	732.422	76.4872	732.422	78.2169	732.422	77.5548	732.422	78.1977
757.324	86.0781	757.324	85.7327	757.324	86.0245	757.324	85.1235	757.324	85.6249	757.324	84.4097	757.324	85.0683	757.324	83.5917	757.324	84.4153	757.324	82.579	757.324	83.5682	757.324	81.4885	757.324	82.5712	757.324	80.6133	757.324	81.7073	757.324	79.9134	757.324	81.1801	757.324	79.1813	757.324	80.5692	757.324	78.7974	757.324	79.0707	757.324	79.1164	757.324	77.031	757.324	79.3727	757.324	77.2905	757.324	78.7122	757.324	78.9789	757.324	77.111	757.324	79.6282	757.324	75.8898	757.324	79.3707	757.324	76.3455	757.324	78.9428	757.324	77.3741	757.324	78.5638	757.324	78.1016
785.156	85.0686	785.156	84.9747	785.156	84.9368	785.156	84.5656	785.156	84.9029	785.156	84.0064	785.156	84.8308	785.156	83.3002	785.156	84.1227	785.156	82.2029	785.156	82.563	785.156	80.4505	785.156	80.7183	785.156	77.785	785.156	79.3308	785.156	74.1832	785.156	77.8823	785.156	71.682	785.156	75.2766	785.156	71.8272	785.156	72.1569	785.156	72.2141	785.156	70.9034	785.156	73.459	785.156	71.8801	785.156	75.4013	785.156	75.5674	785.156	77.238	785.156	78.3436	785.156	78.4656	785.156	78.1173	785.156	79.0854	785.156	74.0357	785.156	78.9703	785.156	71.9963	785.156	76.998
811.523	85.3845	811.523	85.3926	811.523	85.0455	811.523	84.8729	811.523	84.46	811.523	83.8379	811.523	83.6751	811.523	82.7968	811.523	83.0486	811.523	82.3943	811.523	82.8144	811.523	82.3211	811.523	82.4665	811.523	81.9294	811.523	81.5617	811.523	81.1716	811.523	80.1445	811.523	80.3707	811.523	78.3948	811.523	79.8468	811.523	76.8462	811.523	79.7089	811.523	76.7347	811.523	79.6471	811.523	77.2207	811.523	79.065	811.523	75.8323	811.523	77.9284	811.523	73.1302	811.523	77.0925	811.523	74.6355	811.523	76.9127	811.523	77.206	811.523	77.1803	811.523	78.2286	811.523	77.9107
840.82	84.8201	840.82	85.1073	840.82	84.8231	840.82	85.1946	840.82	85.0434	840.82	84.7826	840.82	84.7559	840.82	83.7749	840.82	83.5053	840.82	82.045	840.82	81.6532	840.82	79.4791	840.82	80.5175	840.82	76.6385	840.82	80.5186	840.82	75.2797	840.82	80.4516	840.82	75.6581	840.82	79.4673	840.82	76.5333	840.82	77.3985	840.82	77.4123	840.82	74.7853	840.82	78.2395	840.82	72.4797	840.82	78.7982	840.82	73.3939	840.82	78.8003	840.82	76.2305	840.82	77.9711	840.82	77.044	840.82	76.4214	840.82	75.9861	840.82	74.8972	840.82	74.3816	840.82	73.9291
870.117	86.5279	870.117	85.8934	870.117	86.4082	870.117	85.2346	870.117	85.0731	870.117	84.8389	870.117	82.9186	870.117	84.3499	870.117	81.7913	870.117	83.3894	870.117	82.3263	870.117	82.0192	870.117	82.4146	870.117	80.7575	870.117	80.9991	870.117	80.1768	870.117	79.0791	870.117	80.1818	870.117	78.8176	870.117	80.165	870.117	79.1857	870.117	79.9767	870.117	79.0646	870.117	79.5831	870.117	79.3689	870.117	78.7213	870.117	79.002	870.117	77.8602	870.117	75.4143	870.117	77.5177	870.117	70.1382	870.117	77.6039	870.117	75.8805	870.117	78.7391	870.117	78.8627	870.117	79.5898
900.879	86.4542	900.879	86.309	900.879	86.5336	900.879	86.0561	900.879	86.3428	900.879	85.4359	900.879	85.4157	900.879	84.0453	900.879	83.5242	900.879	81.4603	900.879	81.3031	900.879	78.1928	900.879	80.208	900.879	77.1304	900.879	80.5019	900.879	77.4725	900.879	80.5344	900.879	77.327	900.879	78.8746	900.879	77.378	900.879	75.5921	900.879	78.0641	900.879	73.251	900.879	78.5675	900.879	73.286	900.879	77.988	900.879	77.3512	900.879	76.0589	900.879	80.1769	900.879	74.1994	900.879	79.5641	900.879	75.845	900.879	76.9343	900.879	78.6635	900.879	77.5881	900.879	79.3488
933.105	86.8022	933.105	85.8579	933.105	87.2103	933.105	85.5493	933.105	86.3386	933.105	85.8783	933.105	84.668	933.105	85.7025	933.105	83.7348	933.105	84.1937	933.105	83.3874	933.105	81.4553	933.105	82.4833	933.105	78.6602	933.105	80.7254	933.105	76.9939	933.105	79.0359	933.105	76.4209	933.105	79.3433	933.105	76.7583	933.105	79.729	933.105	77.7835	933.105	79.0476	933.105	78.8018	933.105	79.0798	933.105	79.3366	933.105	77.9654	933.105	79.6353	933.105	74.4573	933.105	79.6076	933.105	77.4158	933.105	78.8194	933.105	78.2317	933.105	77.3008	933.105	75.348	933.105	74.9693
965.332	87.7918	965.332	87.1762	965.332	86.9227	965.332	85.6569	965.332	85.2756	965.332	84.8861	965.332	84.5676	965.332	85.146	965.332	84.6347	965.332	84.6872	965.332	84.4184	965.332	82.6743	965.332	83.7724	965.332	79.4505	965.332	82.6203	965.332	76.6298	965.332	80.7018	965.332	77.834	965.332	78.0145	965.332	80.0317	965.332	75.7012	965.332	80.0181	965.332	72.2341	965.332	78.5942	965.332	67.7795	965.332	77.4629	965.332	77.8544	965.332	75.6243	965.332	80.8768	965.332	74.8504	965.332	79.612	965.332	77.0828	965.332	75.0102	965.332	80.0675	965.332	76.782	965.332	80.4577
1,000.49	86.2352	1,000.49	87.1733	1,000.49	85.463	1,000.49	87.2871	1,000.49	85.598	1,000.49	86.2696	1,000.49	85.4586	1,000.49	84.3391	1,000.49	84.3874	1,000.49	82.336	1,000.49	83.0895	1,000.49	80.3154	1,000.49	81.8251	1,000.49	78.2978	1,000.49	80.7916	1,000.49	77.075	1,000.49	80.6211	1,000.49	76.6258	1,000.49	80.3811	1,000.49	76.5721	1,000.49	78.8395	1,000.49	77.1389	1,000.49	78.4235	1,000.49	76.7359	1,000.49	78.3837	1,000.49	75.1175	1,000.49	74.0104	1,000.49	75.6562	1,000.49	71.3201	1,000.49	78.4275	1,000.49	76.2447	1,000.49	79.6421	1,000.49	76.4101	1,000.49	78.7013	1,000.49	72.9104	1,000.49	75.2478
1,035.64	86.695	1,035.64	86.5348	1,035.64	86.3601	1,035.64	86.3192	1,035.64	85.3521	1,035.64	86.0702	1,035.64	84.5182	1,035.64	85.1835	1,035.64	84.5529	1,035.64	83.3366	1,035.64	84.4797	1,035.64	81.0233	1,035.64	83.7725	1,035.64	78.3295	1,035.64	82.0446	1,035.64	74.2587	1,035.64	78.9253	1,035.64	67.5507	1,035.64	77.3435	1,035.64	55.3731	1,035.64	77.9403	1,035.64	70.1728	1,035.64	76.6228	1,035.64	77.6069	1,035.64	75.6047	1,035.64	80.2237	1,035.64	78.7226	1,035.64	79.9931	1,035.64	79.0074	1,035.64	78.9532	1,035.64	76.4865	1,035.64	78.2934	1,035.64	77.2711	1,035.64	76.9373	1,035.64	77.5114	1,035.64	75.8222
1,072.27	86.679	1,072.27	86.8543	1,072.27	85.9746	1,072.27	86.3212	1,072.27	85.455	1,072.27	85.5005	1,072.27	85.2789	1,072.27	85.0318	1,072.27	84.7858	1,072.27	84.7924	1,072.27	83.5596	1,072.27	84.1235	1,072.27	81.3974	1,072.27	82.3935	1,072.27	78.8082	1,072.27	79.2112	1,072.27	76.8939	1,072.27	75.4921	1,072.27	74.7214	1,072.27	74.2063	1,072.27	72.7831	1,072.27	73.2732	1,072.27	76.06	1,072.27	73.6202	1,072.27	77.9179	1,072.27	76.0432	1,072.27	77.527	1,072.27	76.5016	1,072.27	75.8639	1,072.27	76.1546	1,072.27	76.1322	1,072.27	76.6353	1,072.27	76.8346	1,072.27	76.2831	1,072.27	75.6898	1,072.27	75.2846
1,108.89	86.6708	1,108.89	86.5882	1,108.89	86.109	1,108.89	86.0403	1,108.89	85.9637	1,108.89	85.7245	1,108.89	85.7196	1,108.89	85.0316	1,108.89	84.5204	1,108.89	83.0555	1,108.89	83.4044	1,108.89	80.871	1,108.89	82.9357	1,108.89	80.47	1,108.89	82.2451	1,108.89	80.7129	1,108.89	80.8798	1,108.89	80.5871	1,108.89	79.6533	1,108.89	80.1614	1,108.89	78.3753	1,108.89	78.0908	1,108.89	77.0571	1,108.89	77.0958	1,108.89	73.7	1,108.89	78.3538	1,108.89	71.9535	1,108.89	76.9061	1,108.89	79.2408	1,108.89	75.4733	1,108.89	79.5887	1,108.89	76.8043	1,108.89	76.5033	1,108.89	78.3636	1,108.89	75.3006	1,108.89	77.4064
1,148.44	85.5764	1,148.44	86.7503	1,148.44	85.8351	1,148.44	87.0511	1,148.44	86.5035	1,148.44	85.6366	1,148.44	85.9564	1,148.44	83.8959	1,148.44	85.012	1,148.44	83.0021	1,148.44	84.4084	1,148.44	81.986	1,148.44	83.533	1,148.44	81.5757	1,148.44	81.7813	1,148.44	80.4837	1,148.44	79.4535	1,148.44	76.0895	1,148.44	76.6928	1,148.44	72.9784	1,148.44	71.2683	1,148.44	75.2201	1,148.44	73.9141	1,148.44	74.4427	1,148.44	78.3252	1,148.44	74.8062	1,148.44	78.7943	1,148.44	77.2229	1,148.44	76.0657	1,148.44	76.5281	1,148.44	77.9132	1,148.44	76.0564	1,148.44	79.3218	1,148.44	76.8262	1,148.44	76.4921	1,148.44	75.3094
1,189.45	85.4987	1,189.45	85.7928	1,189.45	85.9287	1,189.45	85.9948	1,189.45	86.0962	1,189.45	85.1648	1,189.45	85.1371	1,189.45	83.1013	1,189.45	84.474	1,189.45	80.4709	1,189.45	84.3428	1,189.45	77.954	1,189.45	83.9602	1,189.45	77.8971	1,189.45	82.9543	1,189.45	79.8728	1,189.45	81.169	1,189.45	79.0498	1,189.45	78.5154	1,189.45	77.3286	1,189.45	73.8407	1,189.45	77.4416	1,189.45	71.9561	1,189.45	77.3095	1,189.45	74.9458	1,189.45	76.4981	1,189.45	72.1309	1,189.45	76.378	1,189.45	77.0103	1,189.45	76.032	1,189.45	77.5641	1,189.45	75.7176	1,189.45	76.0284	1,189.45	75.6194	1,189.45	77.3755	1,189.45	75.266
1,230.47	85.656	1,230.47	86.0038	1,230.47	86.8228	1,230.47	86.4991	1,230.47	86.691	1,230.47	85.0846	1,230.47	84.8305	1,230.47	82.7638	1,230.47	84.1786	1,230.47	82.7035	1,230.47	84.0118	1,230.47	83.0016	1,230.47	83.705	1,230.47	80.9081	1,230.47	83.7081	1,230.47	77.2401	1,230.47	82.6474	1,230.47	74.7576	1,230.47	80.2709	1,230.47	73.486	1,230.47	78.3173	1,230.47	76.6735	1,230.47	76.4243	1,230.47	76.2541	1,230.47	70.0639	1,230.47	73.8802	1,230.47	73.8458	1,230.47	76.5891	1,230.47	76.8043	1,230.47	77.7212	1,230.47	74.5739	1,230.47	76.0164	1,230.47	78.7774	1,230.47	76.3272	1,230.47	78.4784	1,230.47	74.038
1,274.41	86.2338	1,274.41	85.8516	1,274.41	86.9805	1,274.41	86.2148	1,274.41	85.9232	1,274.41	85.4153	1,274.41	84.9325	1,274.41	82.8458	1,274.41	85.5016	1,274.41	80.3405	1,274.41	83.939	1,274.41	79.1375	1,274.41	81.1605	1,274.41	75.9121	1,274.41	80.6432	1,274.41	73.8581	1,274.41	81.4706	1,274.41	73.7523	1,274.41	80.4588	1,274.41	69.2819	1,274.41	76.7148	1,274.41	68.7917	1,274.41	67.3839	1,274.41	72.8332	1,274.41	73.7968	1,274.41	76.7341	1,274.41	75.1123	1,274.41	78.6471	1,274.41	73.6661	1,274.41	77.268	1,274.41	77.8852	1,274.41	73.4432	1,274.41	76.4803	1,274.41	71.6531	1,274.41	77.4546	1,274.41	74.7682
1,319.82	86.4857	1,319.82	85.8292	1,319.82	86.6529	1,319.82	85.7715	1,319.82	85.7706	1,319.82	84.9941	1,319.82	86.0764	1,319.82	82.6045	1,319.82	85.7441	1,319.82	80.3443	1,319.82	83.3963	1,319.82	80.0341	1,319.82	81.8169	1,319.82	77.7099	1,319.82	81.1625	1,319.82	72.7376	1,319.82	79.8955	1,319.82	74.3029	1,319.82	77.8583	1,319.82	75.7465	1,319.82	76.2378	1,319.82	75.7792	1,319.82	76.1384	1,319.82	76.4205	1,319.82	75.5835	1,319.82	77.0783	1,319.82	71.3014	1,319.82	78.501	1,319.82	77.6429	1,319.82	77.1921	1,319.82	78.937	1,319.82	72.0967	1,319.82	76.511	1,319.82	71.7986	1,319.82	76.592	1,319.82	74.233
1,366.7	86.839	1,366.7	86.4961	1,366.7	85.9986	1,366.7	86.2161	1,366.7	85.6189	1,366.7	85.679	1,366.7	86.6402	1,366.7	84.5422	1,366.7	85.2591	1,366.7	82.6282	1,366.7	84.1118	1,366.7	80.3894	1,366.7	83.3844	1,366.7	78.5845	1,366.7	81.4377	1,366.7	76.1528	1,366.7	80.902	1,366.7	66.6762	1,366.7	80.4609	1,366.7	64.3178	1,366.7	77.8524	1,366.7	71.5299	1,366.7	74.0169	1,366.7	70.8852	1,366.7	71.9217	1,366.7	77.086	1,366.7	73.8706	1,366.7	79.2335	1,366.7	74.3523	1,366.7	77.435	1,366.7	74.1319	1,366.7	72.3039	1,366.7	78.5237	1,366.7	73.2335	1,366.7	76.8799	1,366.7	74.3234
1,413.57	85.7955	1,413.57	86.0929	1,413.57	85.7988	1,413.57	85.9441	1,413.57	86.3524	1,413.57	85.2422	1,413.57	86.3946	1,413.57	84.5092	1,413.57	85.4852	1,413.57	82.2917	1,413.57	83.5639	1,413.57	78.2405	1,413.57	81.3114	1,413.57	76.8746	1,413.57	78.2009	1,413.57	78.1687	1,413.57	76.2661	1,413.57	76.6819	1,413.57	76.2732	1,413.57	75.2031	1,413.57	75.2455	1,413.57	75.1248	1,413.57	71.4608	1,413.57	73.4803	1,413.57	72.4182	1,413.57	71.1034	1,413.57	77.3626	1,413.57	75.5629	1,413.57	71.0336	1,413.57	78.1444	1,413.57	76.4674	1,413.57	76.2741	1,413.57	75.4987	1,413.57	73.5335	1,413.57	75.6751	1,413.57	74.2287
1,463.38	85.4919	1,463.38	85.022	1,463.38	85.9636	1,463.38	84.1978	1,463.38	87.1136	1,463.38	84.0985	1,463.38	86.4555	1,463.38	84.5227	1,463.38	85.0694	1,463.38	83.1651	1,463.38	84.8472	1,463.38	79.403	1,463.38	83.2677	1,463.38	78.8552	1,463.38	79.8641	1,463.38	78.6028	1,463.38	76.8767	1,463.38	77.2777	1,463.38	78.2276	1,463.38	78.3647	1,463.38	78.0691	1,463.38	77.4069	1,463.38	72.5444	1,463.38	75.4767	1,463.38	70.0687	1,463.38	66.6389	1,463.38	67.9714	1,463.38	75.7355	1,463.38	73.4729	1,463.38	77.9754	1,463.38	76.3735	1,463.38	71.5821	1,463.38	77.5221	1,463.38	68.4889	1,463.38	75.4256	1,463.38	68.1843
1,516.11	84.5538	1,516.11	83.5421	1,516.11	85.8702	1,516.11	84.5827	1,516.11	86.5217	1,516.11	85.0618	1,516.11	87.096	1,516.11	82.8233	1,516.11	86.2209	1,516.11	80.8066	1,516.11	83.4056	1,516.11	79.9524	1,516.11	81.8917	1,516.11	77.0802	1,516.11	80.4888	1,516.11	76.2259	1,516.11	77.4991	1,516.11	72.4062	1,516.11	75.8017	1,516.11	71.6527	1,516.11	74.4882	1,516.11	75.4119	1,516.11	76.3699	1,516.11	75.6576	1,516.11	74.9885	1,516.11	72.4461	1,516.11	71.3178	1,516.11	74.9456	1,516.11	74.9947	1,516.11	77.0841	1,516.11	74.1464	1,516.11	70.3516	1,516.11	75.3712	1,516.11	62.9398	1,516.11	72.3104	1,516.11	69.1245
1,568.85	83.9895	1,568.85	82.4193	1,568.85	85.0973	1,568.85	83.3367	1,568.85	86.5803	1,568.85	85.0324	1,568.85	86.5785	1,568.85	83.5101	1,568.85	84.4949	1,568.85	80.2444	1,568.85	83.7227	1,568.85	77.9072	1,568.85	81.5503	1,568.85	74.3451	1,568.85	79.5745	1,568.85	69.8672	1,568.85	77.0588	1,568.85	67.0495	1,568.85	71.0438	1,568.85	59.8601	1,568.85	71.4749	1,568.85	72.773	1,568.85	72.7638	1,568.85	78.1233	1,568.85	72.4875	1,568.85	75.9783	1,568.85	75.6879	1,568.85	68.3464	1,568.85	73.5469	1,568.85	75.7325	1,568.85	70.6416	1,568.85	71.3879	1,568.85	76.0736	1,568.85	54.9602	1,568.85	72.092	1,568.85	61.5009
1,624.51	83.8525	1,624.51	84.2159	1,624.51	85.908	1,624.51	83.4256	1,624.51	86.5342	1,624.51	84.1694	1,624.51	84.363	1,624.51	85.0591	1,624.51	84.8856	1,624.51	81.7411	1,624.51	84.0364	1,624.51	78.9544	1,624.51	80.9579	1,624.51	74.568	1,624.51	76.0208	1,624.51	68.4353	1,624.51	77.3218	1,624.51	70.6421	1,624.51	75.364	1,624.51	70.6877	1,624.51	73.9996	1,624.51	61.3144	1,624.51	71.909	1,624.51	73.9106	1,624.51	71.1485	1,624.51	78.6534	1,624.51	72.9882	1,624.51	71.9605	1,624.51	73.1773	1,624.51	74.1579	1,624.51	72.2876	1,624.51	73.7951	1,624.51	75.0047	1,624.51	67.941	1,624.51	68.9191	1,624.51	48.4625
1,681.64	85.0711	1,681.64	82.3826	1,681.64	86.6019	1,681.64	83.5324	1,681.64	86.1416	1,681.64	82.358	1,681.64	86.3695	1,681.64	80.9651	1,681.64	85.3303	1,681.64	82.9879	1,681.64	81.1363	1,681.64	83.5059	1,681.64	80.0938	1,681.64	79.5247	1,681.64	80.2113	1,681.64	73.7795	1,681.64	79.7788	1,681.64	73.6387	1,681.64	76.817	1,681.64	74.0415	1,681.64	70.2046	1,681.64	73.6008	1,681.64	71.0302	1,681.64	72.1908	1,681.64	71.5505	1,681.64	74.5281	1,681.64	70.9642	1,681.64	75.0657	1,681.64	70.5191	1,681.64	72.6054	1,681.64	72.2116	1,681.64	66.1319	1,681.64	72.8468	1,681.64	62.0924	1,681.64	70.5651	1,681.64	66.2505
1,741.7	85.8169	1,741.7	83.4349	1,741.7	86.9103	1,741.7	82.6592	1,741.7	86.8976	1,741.7	81.8107	1,741.7	85.7515	1,741.7	80.6182	1,741.7	83.6337	1,741.7	80.1379	1,741.7	81.3386	1,741.7	79.0466	1,741.7	77.1418	1,741.7	77.9099	1,741.7	74.4565	1,741.7	74.0242	1,741.7	75.9937	1,741.7	73.0055	1,741.7	73.5287	1,741.7	72.5536	1,741.7	71.9595	1,741.7	66.5817	1,741.7	72.0656	1,741.7	68.4107	1,741.7	64.9219	1,741.7	75.1284	1,741.7	70.6903	1,741.7	72.2115	1,741.7	67.6567	1,741.7	65.3881	1,741.7	73.1199	1,741.7	70.8041	1,741.7	71.0376	1,741.7	65.4286	1,741.7	74.8871	1,741.7	67.1068
1,803.22	85.5302	1,803.22	82.5463	1,803.22	87.1717	1,803.22	81.627	1,803.22	87.3508	1,803.22	80.4283	1,803.22	85.872	1,803.22	80.4974	1,803.22	82.7379	1,803.22	82.2773	1,803.22	78.6599	1,803.22	79.2945	1,803.22	78.8494	1,803.22	70.6831	1,803.22	72.5698	1,803.22	59.159	1,803.22	76.2807	1,803.22	49.1379	1,803.22	73.4651	1,803.22	68.2531	1,803.22	74.7141	1,803.22	74.6563	1,803.22	74.9962	1,803.22	72.0739	1,803.22	72.3893	1,803.22	76.4385	1,803.22	71.0438	1,803.22	73.4295	1,803.22	73.1657	1,803.22	66.462	1,803.22	75.5247	1,803.22	69.65	1,803.22	69.9595	1,803.22	66.4577	1,803.22	72.6013	1,803.22	65.9849
1,866.21	84.5828	1,866.21	83.1054	1,866.21	86.2263	1,866.21	81.1091	1,866.21	86.9344	1,866.21	79.7883	1,866.21	85.7508	1,866.21	78.4608	1,866.21	80.7084	1,866.21	80.9441	1,866.21	80.2743	1,866.21	81.4484	1,866.21	77.3638	1,866.21	75.9292	1,866.21	63.0163	1,866.21	72.2034	1,866.21	69.9163	1,866.21	69.557	1,866.21	70.0284	1,866.21	66.5448	1,866.21	50.0236	1,866.21	76.3325	1,866.21	65.7655	1,866.21	79.4911	1,866.21	67.9856	1,866.21	72.5558	1,866.21	67.7279	1,866.21	74.6441	1,866.21	70.6327	1,866.21	73.7889	1,866.21	70.7191	1,866.21	72.3497	1,866.21	73.2112	1,866.21	60.0574	1,866.21	72.0348	1,866.21	68.2633
1,932.13	85.6721	1,932.13	81.6754	1,932.13	86.8671	1,932.13	76.4599	1,932.13	86.6049	1,932.13	77.8676	1,932.13	84.3292	1,932.13	80.3885	1,932.13	80.7862	1,932.13	79.994	1,932.13	77.2504	1,932.13	80.5844	1,932.13	77.7535	1,932.13	79.0439	1,932.13	77.7429	1,932.13	77.1031	1,932.13	75.5171	1,932.13	76.5536	1,932.13	71.2055	1,932.13	74.1257	1,932.13	71.2135	1,932.13	72.6701	1,932.13	70.3251	1,932.13	74.1174	1,932.13	70.8082	1,932.13	71.4912	1,932.13	66.2435	1,932.13	74.2993	1,932.13	65.2266	1,932.13	73.1002	1,932.13	69.1856	1,932.13	60.6287	1,932.13	72.7233	1,932.13	53.1742	1,932.13	74.7748	1,932.13	68.5492
1,999.51	87.2533	1,999.51	83.0164	1,999.51	87.9837	1,999.51	79.3142	1,999.51	85.8137	1,999.51	79.3224	1,999.51	82.6262	1,999.51	79.0871	1,999.51	77.6988	1,999.51	79.3961	1,999.51	78.7519	1,999.51	80.0594	1,999.51	80.4838	1,999.51	77.2037	1,999.51	80.5135	1,999.51	74.3476	1,999.51	78.4428	1,999.51	71.4691	1,999.51	74.3281	1,999.51	70.5785	1,999.51	70.0929	1,999.51	70.0458	1,999.51	71.9921	1,999.51	74.5607	1,999.51	69.1607	1,999.51	72.7859	1,999.51	63.2987	1,999.51	72.4853	1,999.51	64.0513	1,999.51	72.8331	1,999.51	68.1291	1,999.51	62.7116	1,999.51	71.9019	1,999.51	57.9078	1,999.51	75.0362	1,999.51	67.469
2,069.82	87.5852	2,069.82	84.3848	2,069.82	87.9891	2,069.82	81.3349	2,069.82	84.9814	2,069.82	80.2862	2,069.82	79.7223	2,069.82	78.9561	2,069.82	77.9113	2,069.82	78.1342	2,069.82	81.2023	2,069.82	77.5553	2,069.82	82.1531	2,069.82	78.7719	2,069.82	81.2476	2,069.82	78.5463	2,069.82	79.1269	2,069.82	75.6101	2,069.82	76.5154	2,069.82	75.9448	2,069.82	73.7559	2,069.82	72.1038	2,069.82	72.5937	2,069.82	71.055	2,069.82	70.587	2,069.82	73.7258	2,069.82	66.354	2,069.82	68.9394	2,069.82	66.1126	2,069.82	73.5501	2,069.82	69.3233	2,069.82	66.6032	2,069.82	70.4923	2,069.82	64.1819	2,069.82	73.8433	2,069.82	67.3812
2,143.07	86.8446	2,143.07	84.6858	2,143.07	87.9875	2,143.07	79.5296	2,143.07	86.0114	2,143.07	76.8376	2,143.07	80.5938	2,143.07	78.9289	2,143.07	77.7368	2,143.07	79.7949	2,143.07	80.7614	2,143.07	80.1437	2,143.07	81.0608	2,143.07	77.6533	2,143.07	79.9094	2,143.07	75.2907	2,143.07	78.825	2,143.07	76.0044	2,143.07	76.8375	2,143.07	70.9707	2,143.07	75.4941	2,143.07	73.2721	2,143.07	74.7318	2,143.07	68.5158	2,143.07	70.6496	2,143.07	73.6696	2,143.07	71.8439	2,143.07	72.4354	2,143.07	64.7142	2,143.07	70.8278	2,143.07	70.0271	2,143.07	66.4494	2,143.07	70.0696	2,143.07	66.3933	2,143.07	73.2255	2,143.07	67.6443
2,219.24	86.843	2,219.24	85.7018	2,219.24	87.3065	2,219.24	81.6012	2,219.24	84.8903	2,219.24	73.075	2,219.24	79.6892	2,219.24	78.2864	2,219.24	79.4276	2,219.24	80.9318	2,219.24	82.1419	2,219.24	79.5803	2,219.24	82.2509	2,219.24	79.2887	2,219.24	79.6148	2,219.24	78.221	2,219.24	73.5602	2,219.24	71.9294	2,219.24	76.0891	2,219.24	70.9247	2,219.24	76.4609	2,219.24	69.3011	2,219.24	77.4811	2,219.24	71.6869	2,219.24	74.3251	2,219.24	72.0426	2,219.24	74.8505	2,219.24	72.9492	2,219.24	70.0453	2,219.24	68.0788	2,219.24	66.5491	2,219.24	64.6509	2,219.24	65.2077	2,219.24	68.6221	2,219.24	71.6293	2,219.24	65.6021
2,296.88	85.1996	2,296.88	84.2863	2,296.88	85.0935	2,296.88	81.5489	2,296.88	83.3444	2,296.88	78.077	2,296.88	80.3774	2,296.88	80.0662	2,296.88	80.923	2,296.88	80.7454	2,296.88	81.8738	2,296.88	79.3418	2,296.88	81.9721	2,296.88	76.4211	2,296.88	78.7618	2,296.88	72.0838	2,296.88	71.5268	2,296.88	72.3957	2,296.88	68.2128	2,296.88	70.3002	2,296.88	71.7776	2,296.88	71.9595	2,296.88	76.4241	2,296.88	70.978	2,296.88	74.5003	2,296.88	69.1878	2,296.88	74.4138	2,296.88	72.4535	2,296.88	68.7755	2,296.88	67.6947	2,296.88	66.4609	2,296.88	64.1456	2,296.88	59.1824	2,296.88	68.9077	2,296.88	69.0999	2,296.88	68.1458
2,378.91	84.8736	2,378.91	83.0677	2,378.91	84.3041	2,378.91	79.7687	2,378.91	81.9294	2,378.91	79.2158	2,378.91	79.656	2,378.91	79.159	2,378.91	80.2852	2,378.91	79.2277	2,378.91	81.2023	2,378.91	77.0295	2,378.91	80.7958	2,378.91	75.6712	2,378.91	79.6013	2,378.91	75.8292	2,378.91	76.5274	2,378.91	74.163	2,378.91	74.055	2,378.91	73.0471	2,378.91	71.4949	2,378.91	65.1708	2,378.91	70.23	2,378.91	72.019	2,378.91	73.0973	2,378.91	69.1842	2,378.91	73.1536	2,378.91	70.9428	2,378.91	68.9869	2,378.91	68.5124	2,378.91	66.7646	2,378.91	65.7529	2,378.91	59.8884	2,378.91	66.6142	2,378.91	67.686	2,378.91	65.2776
2,462.4	86.5295	2,462.4	84.2011	2,462.4	85.8229	2,462.4	78.0728	2,462.4	82.4176	2,462.4	79.2689	2,462.4	78.3696	2,462.4	80.1664	2,462.4	78.8462	2,462.4	78.6501	2,462.4	80.8314	2,462.4	78.4966	2,462.4	80.8629	2,462.4	76.6767	2,462.4	78.9374	2,462.4	71.6828	2,462.4	74.8754	2,462.4	72.2467	2,462.4	74.5119	2,462.4	67.6659	2,462.4	70.3329	2,462.4	68.2912	2,462.4	67.5333	2,462.4	69.0088	2,462.4	70.2116	2,462.4	70.3801	2,462.4	73.6278	2,462.4	70.7303	2,462.4	70.0077	2,462.4	68.8417	2,462.4	66.2814	2,462.4	63.7879	2,462.4	60.6865	2,462.4	63.9815	2,462.4	68.652	2,462.4	66.4052
2,548.83	86.4706	2,548.83	84.0862	2,548.83	86.4206	2,548.83	76.3681	2,548.83	83.9622	2,548.83	78.0828	2,548.83	78.2323	2,548.83	79.849	2,548.83	78.2373	2,548.83	79.9629	2,548.83	79.0634	2,548.83	79.4182	2,548.83	78.703	2,548.83	76.7639	2,548.83	74.9986	2,548.83	76.139	2,548.83	75.628	2,548.83	67.8897	2,548.83	76.7631	2,548.83	66.6019	2,548.83	66.8901	2,548.83	66.1858	2,548.83	57.7498	2,548.83	65.4933	2,548.83	69.8786	2,548.83	70.9032	2,548.83	71.883	2,548.83	70.3127	2,548.83	70.9796	2,548.83	67.6643	2,548.83	68.6018	2,548.83	61.6457	2,548.83	59.9254	2,548.83	66.9362	2,548.83	68.7369	2,548.83	69.0696
2,639.65	86.2082	2,639.65	83.3194	2,639.65	86.3787	2,639.65	69.852	2,639.65	84.7183	2,639.65	77.3248	2,639.65	76.568	2,639.65	82.2395	2,639.65	79.5107	2,639.65	82.206	2,639.65	80.7945	2,639.65	79.7877	2,639.65	80.9846	2,639.65	74.744	2,639.65	78.9596	2,639.65	71.9783	2,639.65	73.7314	2,639.65	71.6125	2,639.65	74.3193	2,639.65	68.378	2,639.65	72.6329	2,639.65	69.1503	2,639.65	68.257	2,639.65	66.8397	2,639.65	70.1399	2,639.65	69.1639	2,639.65	69.5541	2,639.65	71.4299	2,639.65	71.7783	2,639.65	67.8238	2,639.65	65.1944	2,639.65	65.2425	2,639.65	63.2195	2,639.65	64.7782	2,639.65	69.3178	2,639.65	66.0852
2,731.93	86.3434	2,731.93	82.4578	2,731.93	85.7614	2,731.93	70.3196	2,731.93	82.6141	2,731.93	78.3556	2,731.93	69.8843	2,731.93	82.5048	2,731.93	80.0656	2,731.93	82.0822	2,731.93	82.2706	2,731.93	79.0965	2,731.93	81.8234	2,731.93	77.4545	2,731.93	79.0107	2,731.93	75.211	2,731.93	75.4011	2,731.93	72.0324	2,731.93	68.7115	2,731.93	70.0194	2,731.93	68.8038	2,731.93	67.3461	2,731.93	65.3272	2,731.93	67.3947	2,731.93	68.3628	2,731.93	67.7361	2,731.93	69.53	2,731.93	71.4224	2,731.93	69.5852	2,731.93	67.9543	2,731.93	58.7151	2,731.93	63.3757	2,731.93	58.0332	2,731.93	67.3005	2,731.93	69.9408	2,731.93	70.0068
2,828.61	87.0231	2,828.61	84.1719	2,828.61	85.4827	2,828.61	68.8476	2,828.61	79.2336	2,828.61	78.074	2,828.61	63.1028	2,828.61	81.8397	2,828.61	81.399	2,828.61	81.5502	2,828.61	83.2943	2,828.61	79.3039	2,828.61	81.508	2,828.61	78.1707	2,828.61	79.7626	2,828.61	74.929	2,828.61	75.0084	2,828.61	72.4109	2,828.61	58.5056	2,828.61	66.7956	2,828.61	73.8153	2,828.61	64.8923	2,828.61	69.6684	2,828.61	67.3142	2,828.61	68.6798	2,828.61	69.5332	2,828.61	62.5143	2,828.61	70.7579	2,828.61	69.7787	2,828.61	69.3481	2,828.61	62.2356	2,828.61	63.2277	2,828.61	43.4786	2,828.61	66.3183	2,828.61	68.792	2,828.61	70.6741
2,928.22	88.2119	2,928.22	85.5583	2,928.22	85.9595	2,928.22	72.5995	2,928.22	78.0293	2,928.22	79.4385	2,928.22	71.9561	2,928.22	82.3086	2,928.22	81.7514	2,928.22	82.2021	2,928.22	83.7449	2,928.22	80.9372	2,928.22	81.7381	2,928.22	78.6949	2,928.22	79.1932	2,928.22	72.9812	2,928.22	70.5581	2,928.22	73.3697	2,928.22	68.6136	2,928.22	69.7165	2,928.22	77.4803	2,928.22	71.1506	2,928.22	73.1704	2,928.22	67.0118	2,928.22	58.8391	2,928.22	69.9672	2,928.22	66.3351	2,928.22	70.9281	2,928.22	69.0088	2,928.22	69.2532	2,928.22	59.75	2,928.22	62.2446	2,928.22	53.025	2,928.22	68.1221	2,928.22	69.4035	2,928.22	70.5734
3,030.76	88.3154	3,030.76	85.5465	3,030.76	85.9526	3,030.76	76.2613	3,030.76	76.7236	3,030.76	79.814	3,030.76	76.8676	3,030.76	82.7854	3,030.76	83.0208	3,030.76	82.4567	3,030.76	83.8616	3,030.76	80.5097	3,030.76	80.9954	3,030.76	77.3959	3,030.76	78.1575	3,030.76	75.8077	3,030.76	64.4334	3,030.76	72.9964	3,030.76	73.921	3,030.76	69.0502	3,030.76	77.1221	3,030.76	66.0944	3,030.76	66.8126	3,030.76	66.0911	3,030.76	52.161	3,030.76	68.4183	3,030.76	67.8687	3,030.76	69.9989	3,030.76	68.4185	3,030.76	68.4567	3,030.76	59.9853	3,030.76	62.7332	3,030.76	55.5003	3,030.76	68.3852	3,030.76	67.9097	3,030.76	71.2582
3,137.7	87.7369	3,137.7	84.6722	3,137.7	85.7318	3,137.7	75.115	3,137.7	76.0897	3,137.7	80.2901	3,137.7	78.3074	3,137.7	83.0697	3,137.7	82.6293	3,137.7	82.7729	3,137.7	82.6645	3,137.7	80.6703	3,137.7	79.1381	3,137.7	77.8276	3,137.7	76.7494	3,137.7	74.3523	3,137.7	61.4632	3,137.7	67.2586	3,137.7	74.0298	3,137.7	64.7861	3,137.7	73.4715	3,137.7	65.0078	3,137.7	67.1317	3,137.7	62.9705	3,137.7	55.3648	3,137.7	67.0277	3,137.7	64.4673	3,137.7	69.2598	3,137.7	64.5717	3,137.7	69.0245	3,137.7	59.0881	3,137.7	60.5203	3,137.7	53.4327	3,137.7	66.9705	3,137.7	67.37	3,137.7	69.4853
3,249.02	87.6604	3,249.02	84.2807	3,249.02	86.0552	3,249.02	76.505	3,249.02	77.8011	3,249.02	81.7338	3,249.02	81.2711	3,249.02	84.1118	3,249.02	83.198	3,249.02	83.2959	3,249.02	82.2265	3,249.02	80.2112	3,249.02	79.732	3,249.02	75.9159	3,249.02	76.7632	3,249.02	71.0302	3,249.02	71.0149	3,249.02	69.5668	3,249.02	75.2311	3,249.02	64.3526	3,249.02	70.2963	3,249.02	61.6794	3,249.02	56.8159	3,249.02	62.759	3,249.02	38.0952	3,249.02	64.6074	3,249.02	62.9767	3,249.02	67.0348	3,249.02	64.4088	3,249.02	66.6436	3,249.02	63.9382	3,249.02	57.9979	3,249.02	63.2857	3,249.02	67.684	3,249.02	68.288	3,249.02	69.0677
3,363.28	88.5418	3,363.28	85.7157	3,363.28	86.5788	3,363.28	78.8028	3,363.28	77.2818	3,363.28	82.9524	3,363.28	84.1629	3,363.28	85.0287	3,363.28	84.579	3,363.28	82.6618	3,363.28	81.6121	3,363.28	78.9989	3,363.28	80.6352	3,363.28	74.6552	3,363.28	76.4687	3,363.28	72.865	3,363.28	75.175	3,363.28	65.459	3,363.28	77.2673	3,363.28	61.2361	3,363.28	68.0827	3,363.28	58.6186	3,363.28	65.3069	3,363.28	56.7916	3,363.28	57.5886	3,363.28	59.7061	3,363.28	58.7718	3,363.28	66.4458	3,363.28	66.1678	3,363.28	65.0135	3,363.28	66.1678	3,363.28	55.4804	3,363.28	66.4709	3,363.28	67.6591	3,363.28	68.0728	3,363.28	70.4738
3,481.93	89.0056	3,481.93	87.158	3,481.93	86.9949	3,481.93	80.7511	3,481.93	79.3094	3,481.93	84.8106	3,481.93	85.0023	3,481.93	84.8683	3,481.93	85.1888	3,481.93	83.2576	3,481.93	79.8767	3,481.93	79.2558	3,481.93	79.9058	3,481.93	76.7381	3,481.93	74.5652	3,481.93	68.9394	3,481.93	77.1846	3,481.93	68.1182	3,481.93	75.578	3,481.93	63.7866	3,481.93	73.0524	3,481.93	65.2338	3,481.93	69.3401	3,481.93	57.4558	3,481.93	64.8159	3,481.93	60.9773	3,481.93	58.7206	3,481.93	64.7639	3,481.93	65.4718	3,481.93	64.6249	3,481.93	68.7505	3,481.93	55.672	3,481.93	67.8511	3,481.93	66.7162	3,481.93	67.0699	3,481.93	70.9745
3,604.98	89.419	3,604.98	87.2028	3,604.98	86.3572	3,604.98	81.8906	3,604.98	81.3402	3,604.98	85.7433	3,604.98	85.7931	3,604.98	84.4554	3,604.98	85.712	3,604.98	82.7783	3,604.98	80.0349	3,604.98	79.4613	3,604.98	80.2282	3,604.98	74.5438	3,604.98	74.9842	3,604.98	71.3397	3,604.98	76.4039	3,604.98	64.181	3,604.98	73.6838	3,604.98	56.9836	3,604.98	75.4926	3,604.98	57.8483	3,604.98	69.4305	3,604.98	56.4234	3,604.98	65.2043	3,604.98	55.5083	3,604.98	53.4572	3,604.98	58.9299	3,604.98	65.4973	3,604.98	60.8884	3,604.98	68.7146	3,604.98	56.3426	3,604.98	66.5694	3,604.98	66.8098	3,604.98	67.075	3,604.98	70.8166
3,732.42	90.1468	3,732.42	87.3499	3,732.42	87.398	3,732.42	82.2622	3,732.42	82.9398	3,732.42	85.3118	3,732.42	86.6407	3,732.42	83.5602	3,732.42	85.3466	3,732.42	81.7	3,732.42	79.5521	3,732.42	77.3178	3,732.42	79.9088	3,732.42	70.7882	3,732.42	75.6331	3,732.42	65.7868	3,732.42	76.5784	3,732.42	57.9496	3,732.42	77.6126	3,732.42	58.7017	3,732.42	74.6827	3,732.42	55.8115	3,732.42	74.2535	3,732.42	55.2641	3,732.42	63.6099	3,732.42	57.1293	3,732.42	58.9316	3,732.42	49.8571	3,732.42	64.0299	3,732.42	55.4919	3,732.42	67.9026	3,732.42	53.7711	3,732.42	67.8911	3,732.42	67.4892	3,732.42	68.8418	3,732.42	69.5753
3,864.26	89.8393	3,864.26	86.9774	3,864.26	86.4523	3,864.26	84.5148	3,864.26	85.1692	3,864.26	84.3381	3,864.26	87.6825	3,864.26	84.062	3,864.26	85.0209	3,864.26	81.0328	3,864.26	79.4498	3,864.26	74.3723	3,864.26	79.6178	3,864.26	64.8354	3,864.26	77.314	3,864.26	67.34	3,864.26	74.9688	3,864.26	66.5718	3,864.26	76.5143	3,864.26	66.112	3,864.26	74.6092	3,864.26	64.5545	3,864.26	72.2634	3,864.26	60.9321	3,864.26	68.6654	3,864.26	60.9699	3,864.26	59.5102	3,864.26	56.3757	3,864.26	62.533	3,864.26	47.7743	3,864.26	66.9091	3,864.26	56.4629	3,864.26	69.1441	3,864.26	64.1683	3,864.26	69.3927	3,864.26	68.7801
4,000.49	89.299	4,000.49	86.1527	4,000.49	85.0052	4,000.49	85.3591	4,000.49	84.3696	4,000.49	84.1752	4,000.49	87.1564	4,000.49	83.3482	4,000.49	83.5368	4,000.49	79.2596	4,000.49	77.8448	4,000.49	70.6315	4,000.49	78.9449	4,000.49	71.8411	4,000.49	74	4,000.49	67.3525	4,000.49	72.4177	4,000.49	64.5194	4,000.49	76.7318	4,000.49	63.5627	4,000.49	70.8186	4,000.49	64.0949	4,000.49	68.8247	4,000.49	61.0916	4,000.49	68.3024	4,000.49	58.2036	4,000.49	63.6994	4,000.49	53.3341	4,000.49	61.9113	4,000.49	57.2823	4,000.49	67.3873	4,000.49	56.2804	4,000.49	67.7348	4,000.49	65.1261	4,000.49	68.5868	4,000.49	69.3029
4,141.11	89.4138	4,141.11	87.045	4,141.11	86.0737	4,141.11	84.1374	4,141.11	84.085	4,141.11	83.6172	4,141.11	87.2466	4,141.11	82.9867	4,141.11	82.5901	4,141.11	77.6659	4,141.11	76.4654	4,141.11	70.4823	4,141.11	78.4923	4,141.11	70.0902	4,141.11	68.6704	4,141.11	67.2155	4,141.11	73.5799	4,141.11	67.3678	4,141.11	77.7836	4,141.11	57.2745	4,141.11	73.3462	4,141.11	58.0236	4,141.11	72.6348	4,141.11	59.3953	4,141.11	71.6136	4,141.11	58.977	4,141.11	66.7817	4,141.11	59.1712	4,141.11	59.3861	4,141.11	56.0666	4,141.11	66.9719	4,141.11	53.4381	4,141.11	66.951	4,141.11	64.9231	4,141.11	68.1041	4,141.11	68.1602
4,287.6	89.1061	4,287.6	86.7906	4,287.6	85.8929	4,287.6	84.6973	4,287.6	84.5583	4,287.6	84.5901	4,287.6	86.2074	4,287.6	81.8205	4,287.6	81.5152	4,287.6	75.3594	4,287.6	75.5141	4,287.6	73.184	4,287.6	76.6867	4,287.6	69.4029	4,287.6	72.1837	4,287.6	65.5855	4,287.6	72.9172	4,287.6	57.7956	4,287.6	72.5213	4,287.6	65.0628	4,287.6	73.7454	4,287.6	57.1854	4,287.6	70.9889	4,287.6	62.3193	4,287.6	70.8991	4,287.6	59.4345	4,287.6	67.8913	4,287.6	57.0993	4,287.6	62.52	4,287.6	56.6022	4,287.6	67.1732	4,287.6	61.8143	4,287.6	66.3059	4,287.6	62.7947	4,287.6	67.2658	4,287.6	66.5019
4,438.48	89.2528	4,438.48	86.4084	4,438.48	86.2084	4,438.48	84.4774	4,438.48	85.5011	4,438.48	84.9129	4,438.48	86.1748	4,438.48	80.1932	4,438.48	79.6822	4,438.48	78.0712	4,438.48	74.1052	4,438.48	68.8128	4,438.48	71.3631	4,438.48	68.9198	4,438.48	74.8387	4,438.48	65.8387	4,438.48	75.9117	4,438.48	65.2233	4,438.48	74.1396	4,438.48	62.3746	4,438.48	74.8079	4,438.48	61.9061	4,438.48	71.1755	4,438.48	59.8074	4,438.48	67.5405	4,438.48	62.3581	4,438.48	68.5136	4,438.48	58.3503	4,438.48	64.9	4,438.48	59.0504	4,438.48	66.1281	4,438.48	62.3429	4,438.48	66.0304	4,438.48	62.5112	4,438.48	67.6774	4,438.48	66.8706
4,595.21	88.2131	4,595.21	87.5342	4,595.21	85.7023	4,595.21	84.1222	4,595.21	84.9785	4,595.21	83.8817	4,595.21	86.1574	4,595.21	79.9662	4,595.21	77.7912	4,595.21	77.0984	4,595.21	70.5134	4,595.21	69.6329	4,595.21	73.8932	4,595.21	58.451	4,595.21	76.7316	4,595.21	69.0425	4,595.21	74.7511	4,595.21	62.9706	4,595.21	73.8863	4,595.21	63.84	4,595.21	72.9212	4,595.21	57.3434	4,595.21	69.2035	4,595.21	59.9384	4,595.21	66.1166	4,595.21	63.388	4,595.21	66.4625	4,595.21	60.7081	4,595.21	60.5778	4,595.21	57.7696	4,595.21	65.3187	4,595.21	64.4948	4,595.21	64.2606	4,595.21	65.0829	4,595.21	66.8567	4,595.21	67.2873
4,756.35	88.4411	4,756.35	86.9736	4,756.35	86.2988	4,756.35	84.5822	4,756.35	84.061	4,756.35	84.1622	4,756.35	86.3902	4,756.35	79.6425	4,756.35	78.4732	4,756.35	74.7171	4,756.35	66.9636	4,756.35	63.0634	4,756.35	77.1128	4,756.35	68.4611	4,756.35	76.8559	4,756.35	65.6637	4,756.35	70.7681	4,756.35	69.7864	4,756.35	73.8058	4,756.35	63.7932	4,756.35	72.941	4,756.35	65.0624	4,756.35	71.9379	4,756.35	63.8814	4,756.35	63.612	4,756.35	64.0396	4,756.35	65.0883	4,756.35	61.3373	4,756.35	58.2999	4,756.35	64.8387	4,756.35	63.7819	4,756.35	66.1231	4,756.35	66.119	4,756.35	64.8109	4,756.35	66.2242	4,756.35	65.3324
4,924.8	88.6718	4,924.8	87.7993	4,924.8	87.4532	4,924.8	84.6061	4,924.8	84.5757	4,924.8	83.3101	4,924.8	85.0061	4,924.8	80.752	4,924.8	78.75	4,924.8	67.7996	4,924.8	68.1514	4,924.8	71.3969	4,924.8	76.5751	4,924.8	72.7188	4,924.8	73.8731	4,924.8	70.8576	4,924.8	65.6647	4,924.8	66.8448	4,924.8	71.429	4,924.8	64.0848	4,924.8	72.9544	4,924.8	63.695	4,924.8	68.7202	4,924.8	62.3583	4,924.8	48.6624	4,924.8	66.2799	4,924.8	63.5592	4,924.8	64.0071	4,924.8	61.5343	4,924.8	62.4191	4,924.8	61.6616	4,924.8	64.2591	4,924.8	63.019	4,924.8	64.3527	4,924.8	66.655	4,924.8	64.6596
5,097.66	88.294	5,097.66	87.1242	5,097.66	86.4427	5,097.66	84.738	5,097.66	86.9658	5,097.66	83.7268	5,097.66	84.266	5,097.66	77.8101	5,097.66	78.5211	5,097.66	69.7274	5,097.66	70.8058	5,097.66	73.7979	5,097.66	75.3509	5,097.66	71.4368	5,097.66	71.0425	5,097.66	66.7248	5,097.66	65.8211	5,097.66	62.965	5,097.66	63.2412	5,097.66	60.5043	5,097.66	68.0698	5,097.66	53.3474	5,097.66	58.5736	5,097.66	59.3897	5,097.66	57.8637	5,097.66	62.5868	5,097.66	62.0199	5,097.66	63.3117	5,097.66	59.0281	5,097.66	64.4147	5,097.66	62.8579	5,097.66	65.4622	5,097.66	64.8584	5,097.66	63.8247	5,097.66	67.0221	5,097.66	63.9296
5,277.83	88.5744	5,277.83	87.0644	5,277.83	85.8845	5,277.83	84.753	5,277.83	87.0342	5,277.83	83.5122	5,277.83	83.6422	5,277.83	74.0437	5,277.83	75.203	5,277.83	74.9052	5,277.83	74.0146	5,277.83	72.5864	5,277.83	71.7914	5,277.83	70.4468	5,277.83	67.7916	5,277.83	67.7629	5,277.83	67.1546	5,277.83	66.0413	5,277.83	67.6392	5,277.83	63.6579	5,277.83	64.4273	5,277.83	62.7238	5,277.83	61.043	5,277.83	60.2187	5,277.83	50.6637	5,277.83	61.4906	5,277.83	56.2634	5,277.83	63.1826	5,277.83	60.6092	5,277.83	65.3671	5,277.83	62.961	5,277.83	63.6252	5,277.83	61.583	5,277.83	65.8335	5,277.83	65.4358	5,277.83	62.5472
5,463.87	88.0793	5,463.87	87.2072	5,463.87	85.8919	5,463.87	84.6772	5,463.87	86.7113	5,463.87	82.6487	5,463.87	81.8007	5,463.87	73.2297	5,463.87	75.0676	5,463.87	75.3192	5,463.87	73.4772	5,463.87	73.4459	5,463.87	68.709	5,463.87	69.8341	5,463.87	68.8911	5,463.87	69.066	5,463.87	68.8892	5,463.87	62.8237	5,463.87	63.1803	5,463.87	61.8759	5,463.87	67.3718	5,463.87	57.8462	5,463.87	61.8754	5,463.87	62.2625	5,463.87	49.614	5,463.87	61.8069	5,463.87	56.2368	5,463.87	63.0214	5,463.87	57.7054	5,463.87	64.2687	5,463.87	62.6987	5,463.87	64.9519	5,463.87	59.2244	5,463.87	66.2179	5,463.87	65.5865	5,463.87	61.1264
5,657.23	88.3332	5,657.23	86.313	5,657.23	85.6155	5,657.23	84.303	5,657.23	86.4697	5,657.23	81.5613	5,657.23	79.9426	5,657.23	76.1382	5,657.23	75.3455	5,657.23	75.2397	5,657.23	73.1601	5,657.23	73.5904	5,657.23	68.183	5,657.23	69.823	5,657.23	72.4434	5,657.23	66.6334	5,657.23	69.5347	5,657.23	65.0407	5,657.23	61.0374	5,657.23	61.871	5,657.23	64.9232	5,657.23	60.1376	5,657.23	56.1165	5,657.23	60.0178	5,657.23	47.471	5,657.23	61.4863	5,657.23	54.1483	5,657.23	61.481	5,657.23	19.8339	5,657.23	62.579	5,657.23	62.7972	5,657.23	65.331	5,657.23	58.4167	5,657.23	63.2336	5,657.23	62.155	5,657.23	59.3148
5,856.45	87.687	5,856.45	85.7031	5,856.45	83.8561	5,856.45	84.7932	5,856.45	85.7608	5,856.45	79.7581	5,856.45	79.5512	5,856.45	76.4596	5,856.45	76.6434	5,856.45	75.2443	5,856.45	73.9154	5,856.45	72.2628	5,856.45	69.7896	5,856.45	68.3442	5,856.45	73.7963	5,856.45	68.0559	5,856.45	70.4706	5,856.45	65.5612	5,856.45	67.7118	5,856.45	59.8145	5,856.45	48.7464	5,856.45	59.1589	5,856.45	50.1309	5,856.45	61.4158	5,856.45	45.6717	5,856.45	62.6106	5,856.45	48.3605	5,856.45	61.6519	5,856.45	46.7248	5,856.45	62.0063	5,856.45	58.5595	5,856.45	64.518	5,856.45	57.3272	5,856.45	64.5185	5,856.45	62.8049	5,856.45	59.7357
6,062.99	88.4797	6,062.99	84.7681	6,062.99	84.4814	6,062.99	84.573	6,062.99	86.0823	6,062.99	79.7162	6,062.99	80.4885	6,062.99	75.1611	6,062.99	77.7873	6,062.99	75.369	6,062.99	72.4769	6,062.99	70.5579	6,062.99	69.1288	6,062.99	70.692	6,062.99	72.8339	6,062.99	69.6732	6,062.99	69.5487	6,062.99	67.2017	6,062.99	66.092	6,062.99	61.1458	6,062.99	63.8141	6,062.99	60.9526	6,062.99	60.4095	6,062.99	58.7567	6,062.99	42.0932	6,062.99	62.6938	6,062.99	55.2949	6,062.99	62.534	6,062.99	43.3439	6,062.99	61.2929	6,062.99	57.6281	6,062.99	65.8005	6,062.99	60.8989	6,062.99	63.7491	6,062.99	59.658	6,062.99	57.794
6,276.86	87.4955	6,276.86	84.4202	6,276.86	83.8908	6,276.86	84.9452	6,276.86	85.6643	6,276.86	79.8937	6,276.86	78.9475	6,276.86	77.4815	6,276.86	76.0957	6,276.86	75.7365	6,276.86	72.6679	6,276.86	74.8406	6,276.86	65.6867	6,276.86	72.1269	6,276.86	73.9473	6,276.86	69.1353	6,276.86	66.8599	6,276.86	63.6173	6,276.86	65.852	6,276.86	57.4602	6,276.86	60.4861	6,276.86	59.5869	6,276.86	59.1946	6,276.86	60.6062	6,276.86	52.8544	6,276.86	60.4134	6,276.86	51.7872	6,276.86	62.1178	6,276.86	51.5933	6,276.86	59.0175	6,276.86	53.9806	6,276.86	65.715	6,276.86	57.0113	6,276.86	61.9033	6,276.86	58.2316	6,276.86	56.4951
6,498.05	87.7433	6,498.05	85.5472	6,498.05	83.9935	6,498.05	85.1936	6,498.05	84.2001	6,498.05	79.8366	6,498.05	78.0276	6,498.05	77.6939	6,498.05	70.7702	6,498.05	73.6019	6,498.05	73.0581	6,498.05	75.0509	6,498.05	66.7515	6,498.05	67.9548	6,498.05	73.093	6,498.05	66.2067	6,498.05	63.1124	6,498.05	65.2222	6,498.05	64.6198	6,498.05	54.5229	6,498.05	63.8289	6,498.05	56.2015	6,498.05	63.8999	6,498.05	57.4222	6,498.05	57.4761	6,498.05	60.1512	6,498.05	52.4467	6,498.05	60.3382	6,498.05	48.8206	6,498.05	59.6807	6,498.05	53.4795	6,498.05	64.1493	6,498.05	57.2403	6,498.05	62.8376	6,498.05	52.2061	6,498.05	56.8124
6,726.56	87.3969	6,726.56	85.1979	6,726.56	85.1211	6,726.56	84.5108	6,726.56	83.6074	6,726.56	79.6105	6,726.56	75.8322	6,726.56	77.4269	6,726.56	70.7867	6,726.56	76.0062	6,726.56	75.0747	6,726.56	73.3759	6,726.56	71.873	6,726.56	68.9388	6,726.56	73.1144	6,726.56	67.5265	6,726.56	64.0016	6,726.56	63.9479	6,726.56	57.4309	6,726.56	60.6242	6,726.56	61.4465	6,726.56	58.6362	6,726.56	60.5489	6,726.56	58.9938	6,726.56	54.3294	6,726.56	61.3797	6,726.56	51.3554	6,726.56	60.4674	6,726.56	52.4284	6,726.56	59.7005	6,726.56	53.5893	6,726.56	63.3464	6,726.56	55.1557	6,726.56	62.2018	6,726.56	54.4934	6,726.56	54.5399
6,963.87	86.9554	6,963.87	84.3472	6,963.87	84.3952	6,963.87	83.8533	6,963.87	84.1902	6,963.87	79.0671	6,963.87	75.579	6,963.87	77.0102	6,963.87	75.8443	6,963.87	76.1299	6,963.87	76.2634	6,963.87	73.2448	6,963.87	72.7166	6,963.87	69.837	6,963.87	68.0661	6,963.87	66.0497	6,963.87	69.2249	6,963.87	63.0371	6,963.87	59.4681	6,963.87	49.9752	6,963.87	61.0475	6,963.87	56.9464	6,963.87	60.4232	6,963.87	57.68	6,963.87	57.2818	6,963.87	58.925	6,963.87	53.1597	6,963.87	59.5847	6,963.87	49.1313	6,963.87	57.968	6,963.87	51.2975	6,963.87	60.6945	6,963.87	54.9726	6,963.87	62.8968	6,963.87	57.0237	6,963.87	51.6468
7,209.96	86.431	7,209.96	84.052	7,209.96	82.9065	7,209.96	84.0719	7,209.96	81.8261	7,209.96	79.2619	7,209.96	78.4637	7,209.96	78.2354	7,209.96	77.702	7,209.96	76.1116	7,209.96	76.3264	7,209.96	73.3189	7,209.96	72.8539	7,209.96	62.298	7,209.96	69.0944	7,209.96	66.0754	7,209.96	70.1582	7,209.96	62.2713	7,209.96	61.3359	7,209.96	60.0667	7,209.96	54.8903	7,209.96	58.3281	7,209.96	55.5123	7,209.96	56.0102	7,209.96	48.5934	7,209.96	61.0825	7,209.96	37.835	7,209.96	60.5378	7,209.96	46.1829	7,209.96	56.6402	7,209.96	31.5234	7,209.96	61.5319	7,209.96	54.3852	7,209.96	61.9429	7,209.96	55.3696	7,209.96	46.238
7,464.84	85.8319	7,464.84	83.6703	7,464.84	83.6813	7,464.84	83.7785	7,464.84	82.1771	7,464.84	79.6525	7,464.84	78.4951	7,464.84	78.4515	7,464.84	77.5917	7,464.84	75.5184	7,464.84	74.927	7,464.84	70.2255	7,464.84	69.0871	7,464.84	67.4418	7,464.84	69.4979	7,464.84	66.9559	7,464.84	67.5302	7,464.84	63.4247	7,464.84	62.0562	7,464.84	56.6918	7,464.84	62.3186	7,464.84	58.4076	7,464.84	56.4832	7,464.84	57.2984	7,464.84	57.0147	7,464.84	59.8169	7,464.84	47.3782	7,464.84	61.0985	7,464.84	46.1717	7,464.84	58.2254	7,464.84	45.5086	7,464.84	61.8229	7,464.84	52.0212	7,464.84	60.5202	7,464.84	53.2826	7,464.84	48.6598
7,727.05	85.386	7,727.05	83.6692	7,727.05	82.7122	7,727.05	83.6404	7,727.05	82.04	7,727.05	79.5428	7,727.05	78.9098	7,727.05	77.5079	7,727.05	76.7932	7,727.05	74.7014	7,727.05	73.4482	7,727.05	71.1643	7,727.05	66.8306	7,727.05	66.6047	7,727.05	66.0964	7,727.05	66.1416	7,727.05	64.7118	7,727.05	61.829	7,727.05	46.7015	7,727.05	54.9056	7,727.05	56.9264	7,727.05	54.6923	7,727.05	58.8347	7,727.05	55.5303	7,727.05	57.5791	7,727.05	57.6182	7,727.05	53.1671	7,727.05	61.0989	7,727.05	52.4508	7,727.05	56.9033	7,727.05	49.2034	7,727.05	60.7747	7,727.05	53.5345	7,727.05	59.6042	7,727.05	54.3252	7,727.05	48.1773
7,999.51	85.2119	7,999.51	83.41	7,999.51	83.6055	7,999.51	82.7303	7,999.51	82.7445	7,999.51	78.8736	7,999.51	78.6853	7,999.51	76.8894	7,999.51	76.9197	7,999.51	72.3961	7,999.51	70.3249	7,999.51	70.455	7,999.51	67.6904	7,999.51	63.3699	7,999.51	56.4889	7,999.51	64.111	7,999.51	62.0925	7,999.51	63.9837	7,999.51	57.5693	7,999.51	53.6293	7,999.51	63.0503	7,999.51	54.419	7,999.51	62.9553	7,999.51	55.0991	7,999.51	60.5232	7,999.51	57.1434	7,999.51	53.6683	7,999.51	58.9882	7,999.51	50.1425	7,999.51	51.8551	7,999.51	46.1383	7,999.51	57.8243	7,999.51	52.2814	7,999.51	59.0524	7,999.51	54.1857	7,999.51	46.9938
8,282.23	85.0941	8,282.23	83.7157	8,282.23	83.1945	8,282.23	82.9446	8,282.23	82.7119	8,282.23	79.5377	8,282.23	79.9432	8,282.23	75.7729	8,282.23	76.8896	8,282.23	72.4944	8,282.23	67.1893	8,282.23	69.1668	8,282.23	67.9461	8,282.23	64.9452	8,282.23	61.4952	8,282.23	62.1078	8,282.23	64.5045	8,282.23	57.8932	8,282.23	57.5899	8,282.23	55.0653	8,282.23	62.5606	8,282.23	54.332	8,282.23	62.1874	8,282.23	50.1068	8,282.23	57.3579	8,282.23	52.6767	8,282.23	50.5262	8,282.23	57.355	8,282.23	40.3746	8,282.23	56.5708	8,282.23	38.4387	8,282.23	58.3724	8,282.23	52.3709	8,282.23	57.3895	8,282.23	53.3604	8,282.23	45.947
8,573.73	84.9362	8,573.73	83.692	8,573.73	83.8169	8,573.73	82.6185	8,573.73	83.1589	8,573.73	79.0034	8,573.73	80.2203	8,573.73	75.1797	8,573.73	75.8355	8,573.73	71.8389	8,573.73	64.9887	8,573.73	69.3226	8,573.73	63.8669	8,573.73	64.6442	8,573.73	60.3713	8,573.73	63.3251	8,573.73	62.1319	8,573.73	61.2794	8,573.73	54.7235	8,573.73	53.7146	8,573.73	54.473	8,573.73	52.0027	8,573.73	56.442	8,573.73	54.5546	8,573.73	52.4168	8,573.73	53.9685	8,573.73	48.9625	8,573.73	55.4215	8,573.73	43.9819	8,573.73	53.3598	8,573.73	35.6507	8,573.73	56.4731	8,573.73	49.8919	8,573.73	57.5058	8,573.73	52.0514	8,573.73	42.9572
8,876.95	85.1695	8,876.95	83.8465	8,876.95	84.198	8,876.95	82.5468	8,876.95	83.3919	8,876.95	78.573	8,876.95	78.8114	8,876.95	73.3514	8,876.95	74.4114	8,876.95	68.8627	8,876.95	66.5243	8,876.95	66.6225	8,876.95	56.1362	8,876.95	60.1996	8,876.95	65.76	8,876.95	58.5923	8,876.95	60.1172	8,876.95	53.5397	8,876.95	55.1866	8,876.95	48.5226	8,876.95	51.8094	8,876.95	51.5026	8,876.95	57.7848	8,876.95	43.5494	8,876.95	52.5552	8,876.95	46.4188	8,876.95	44.3343	8,876.95	50.5925	8,876.95	46.0973	8,876.95	50.6003	8,876.95	40.0521	8,876.95	51.481	8,876.95	43.9879	8,876.95	51.3996	8,876.95	50.8683	8,876.95	44.2938
9,188.96	85.2591	9,188.96	84.2528	9,188.96	84.6169	9,188.96	82.5657	9,188.96	83.4027	9,188.96	78.0801	9,188.96	77.7333	9,188.96	71.7467	9,188.96	73.0829	9,188.96	64.3261	9,188.96	67.1403	9,188.96	65.5351	9,188.96	59.0376	9,188.96	56.6071	9,188.96	63.4011	9,188.96	52.7563	9,188.96	60.5822	9,188.96	42.7112	9,188.96	55.8737	9,188.96	38.8058	9,188.96	49.4533	9,188.96	42.9591	9,188.96	60.0108	9,188.96	40.6825	9,188.96	54.0081	9,188.96	38.9523	9,188.96	44.6981	9,188.96	42.8903	9,188.96	47.2043	9,188.96	39.3811	9,188.96	38.7101	9,188.96	44.7618	9,188.96	47.3099	9,188.96	48.0499	9,188.96	52.0715	9,188.96	41.0051
9,514.16	85.4928	9,514.16	85.0841	9,514.16	85.0356	9,514.16	82.1745	9,514.16	83.5616	9,514.16	77.8703	9,514.16	77.0613	9,514.16	68.7165	9,514.16	70.8351	9,514.16	50.575	9,514.16	62.0017	9,514.16	62.8674	9,514.16	61.1905	9,514.16	53.4993	9,514.16	59.3018	9,514.16	57.1051	9,514.16	60.272	9,514.16	31.883	9,514.16	44.8648	9,514.16	51.9587	9,514.16	54.9957	9,514.16	46.3991	9,514.16	62.265	9,514.16	48.2107	9,514.16	52.0752	9,514.16	51.4953	9,514.16	46.4907	9,514.16	47.8436	9,514.16	48.3576	9,514.16	44.3316	9,514.16	42.378	9,514.16	44.2237	9,514.16	48.1015	9,514.16	51.3963	9,514.16	51.3251	9,514.16	45.1285
9,849.61	85.5915	9,849.61	85.4504	9,849.61	85.8499	9,849.61	81.6457	9,849.61	83.4798	9,849.61	77.4549	9,849.61	77.0034	9,849.61	68.9717	9,849.61	70.7546	9,849.61	62.1502	9,849.61	62.6496	9,849.61	56.1105	9,849.61	62.0235	9,849.61	57.6457	9,849.61	57.6735	9,849.61	49.1828	9,849.61	58.4235	9,849.61	48.2297	9,849.61	46.2137	9,849.61	37.3246	9,849.61	60.1697	9,849.61	46.587	9,849.61	62.7236	9,849.61	46.1575	9,849.61	48.0528	9,849.61	43.4195	9,849.61	43.8786	9,849.61	38.0782	9,849.61	44.2645	9,849.61	43.9564	9,849.61	42.6815	9,849.61	44.6439	9,849.61	48.7953	9,849.61	50.8287	9,849.61	50.364	9,849.61	36.661
10,196.8	85.6687	10,196.8	85.5811	10,196.8	86.0169	10,196.8	81.7169	10,196.8	83.1548	10,196.8	76.4437	10,196.8	76.9474	10,196.8	69.0774	10,196.8	69.7554	10,196.8	54.4163	10,196.8	60.168	10,196.8	57.9487	10,196.8	59.1107	10,196.8	43.2861	10,196.8	55.3139	10,196.8	50.8123	10,196.8	57.401	10,196.8	54.2317	10,196.8	52.0654	10,196.8	33.9057	10,196.8	60.1007	10,196.8	52.8788	10,196.8	62.0251	10,196.8	47.2273	10,196.8	50.1306	10,196.8	46.6473	10,196.8	22.5535	10,196.8	46.5307	10,196.8	34.7199	10,196.8	44.5472	10,196.8	36.74	10,196.8	38.1189	10,196.8	41.6615	10,196.8	46.391	10,196.8	47.3777	10,196.8	40.6329
10,555.7	86.0546	10,555.7	85.5265	10,555.7	85.8285	10,555.7	81.9516	10,555.7	82.6603	10,555.7	75.1755	10,555.7	75.6402	10,555.7	66.2667	10,555.7	67.4008	10,555.7	60.9891	10,555.7	59.2775	10,555.7	63.7243	10,555.7	59.4037	10,555.7	60.6571	10,555.7	59.6305	10,555.7	60.1553	10,555.7	58.7077	10,555.7	57.4929	10,555.7	50.3432	10,555.7	52.0543	10,555.7	59.2421	10,555.7	45.2122	10,555.7	63.6483	10,555.7	46.362	10,555.7	53.6317	10,555.7	54.3565	10,555.7	45.524	10,555.7	54.4891	10,555.7	39.7839	10,555.7	52.4994	10,555.7	34.3669	10,555.7	46.1499	10,555.7	39.6749	10,555.7	49.2883	10,555.7	41.8926	10,555.7	46.5197
10,927.7	86.5143	10,927.7	85.7096	10,927.7	85.8685	10,927.7	82.1161	10,927.7	82.6451	10,927.7	73.9982	10,927.7	75.0753	10,927.7	59.9181	10,927.7	63.9012	10,927.7	64.8231	10,927.7	62.886	10,927.7	65.6288	10,927.7	64.0131	10,927.7	63.0996	10,927.7	61.5154	10,927.7	59.31	10,927.7	55.1953	10,927.7	59.2112	10,927.7	53.2604	10,927.7	50.5027	10,927.7	61.883	10,927.7	49.3132	10,927.7	65.455	10,927.7	46.5633	10,927.7	55.3554	10,927.7	52.6522	10,927.7	43.9974	10,927.7	53.4283	10,927.7	37.6752	10,927.7	52.8582	10,927.7	35.6538	10,927.7	48.933	10,927.7	32.7228	10,927.7	52.0616	10,927.7	42.1805	10,927.7	47.1274
11,313	86.6612	11,313	85.8345	11,313	85.8564	11,313	81.8725	11,313	82.5506	11,313	71.6748	11,313	74.4105	11,313	51.8878	11,313	63.2325	11,313	67.09	11,313	63.6333	11,313	65.6841	11,313	65.8498	11,313	63.4527	11,313	59.4413	11,313	59.7841	11,313	57.1381	11,313	57.5086	11,313	54.3132	11,313	50.7755	11,313	64.3032	11,313	49.9167	11,313	67.3876	11,313	49.9915	11,313	55.6944	11,313	53.5622	11,313	40.0931	11,313	53.2419	11,313	35.9505	11,313	52.2334	11,313	27.9498	11,313	49.0541	11,313	27.1165	11,313	51.9327	11,313	42.7549	11,313	47.8642
11,712.9	86.346	11,712.9	85.6693	11,712.9	85.7517	11,712.9	81.5753	11,712.9	82.2878	11,712.9	70.0613	11,712.9	71.6501	11,712.9	61.1575	11,712.9	63.557	11,712.9	67.7474	11,712.9	63.7109	11,712.9	67.4297	11,712.9	63.6371	11,712.9	64.5531	11,712.9	60.6079	11,712.9	60.058	11,712.9	57.0695	11,712.9	57.6859	11,712.9	55.062	11,712.9	49.2792	11,712.9	64.7005	11,712.9	38.9435	11,712.9	67.1467	11,712.9	44.5032	11,712.9	55.0974	11,712.9	51.7159	11,712.9	42.6163	11,712.9	52.4919	11,712.9	40.8504	11,712.9	51.8146	11,712.9	35.8822	11,712.9	46.2553	11,712.9	34.0397	11,712.9	51.5327	11,712.9	42.6182	11,712.9	45.5241
12,126	86.428	12,126	85.5452	12,126	85.841	12,126	80.9698	12,126	82.1576	12,126	66.6542	12,126	70.5158	12,126	64.7629	12,126	62.7682	12,126	66.5808	12,126	63.7689	12,126	66.0309	12,126	63.6314	12,126	61.9535	12,126	62.3414	12,126	56.5239	12,126	54.6985	12,126	55.6135	12,126	55.2317	12,126	45.0928	12,126	65.5429	12,126	48.5437	12,126	67.0953	12,126	45.7702	12,126	54.4772	12,126	47.8117	12,126	39.288	12,126	47.6771	12,126	38.2284	12,126	48.4562	12,126	37.7051	12,126	40.1996	12,126	36.4006	12,126	47.4886	12,126	41.6287	12,126	43.8632
12,553.7	86.5104	12,553.7	85.4684	12,553.7	85.9343	12,553.7	80.4132	12,553.7	82.0001	12,553.7	64.4144	12,553.7	71.9128	12,553.7	62.6032	12,553.7	62.5249	12,553.7	63.6275	12,553.7	66.3752	12,553.7	63.9659	12,553.7	63.3379	12,553.7	59.2129	12,553.7	60.7301	12,553.7	53.2523	12,553.7	59.3175	12,553.7	53.0935	12,553.7	55.7503	12,553.7	46.4889	12,553.7	65.8553	12,553.7	45.8872	12,553.7	67.2561	12,553.7	47.5358	12,553.7	52.1513	12,553.7	47.7413	12,553.7	41.3532	12,553.7	46.3306	12,553.7	34.9381	12,553.7	48.2218	12,553.7	37.2264	12,553.7	38.3879	12,553.7	29.5566	12,553.7	45.5265	12,553.7	42.0506	12,553.7	42.6295
12,996.1	86.6509	12,996.1	85.3755	12,996.1	85.9357	12,996.1	79.6508	12,996.1	81.2084	12,996.1	62.677	12,996.1	69.3302	12,996.1	60.9877	12,996.1	62.4721	12,996.1	63.9127	12,996.1	65.9955	12,996.1	64.4531	12,996.1	65.4958	12,996.1	60.431	12,996.1	61.9216	12,996.1	55.7443	12,996.1	58.5461	12,996.1	52.5624	12,996.1	54.3597	12,996.1	47.6167	12,996.1	65.8138	12,996.1	43.0971	12,996.1	66.8705	12,996.1	43.9387	12,996.1	52.6383	12,996.1	46.0266	12,996.1	40.4005	12,996.1	43.8872	12,996.1	36.6625	12,996.1	45.7174	12,996.1	36.7917	12,996.1	36.1329	12,996.1	31.2468	12,996.1	44.0267	12,996.1	40.8417	12,996.1	39.6646
13,454.6	86.6043	13,454.6	85.2013	13,454.6	85.6163	13,454.6	79.2037	13,454.6	81.0367	13,454.6	63.7424	13,454.6	71.0137	13,454.6	58.9548	13,454.6	57.3439	13,454.6	64.8102	13,454.6	64.5816	13,454.6	64.9728	13,454.6	65.3822	13,454.6	60.4362	13,454.6	61.1242	13,454.6	54.9782	13,454.6	57.0724	13,454.6	53.0871	13,454.6	55.7381	13,454.6	45.088	13,454.6	65.0063	13,454.6	32.0102	13,454.6	66.6008	13,454.6	44.1777	13,454.6	53.6987	13,454.6	43.1063	13,454.6	41.7437	13,454.6	42.7334	13,454.6	36.5663	13,454.6	46.033	13,454.6	34.1545	13,454.6	37.2712	13,454.6	35.6179	13,454.6	43.0202	13,454.6	42.7917	13,454.6	36.9355
13,929.2	86.7513	13,929.2	84.783	13,929.2	85.3571	13,929.2	78.2772	13,929.2	80.0156	13,929.2	64.3207	13,929.2	69.4284	13,929.2	59.7284	13,929.2	60.7383	13,929.2	64.0146	13,929.2	65.0087	13,929.2	63.3768	13,929.2	62.9401	13,929.2	59.8705	13,929.2	58.4836	13,929.2	55.3148	13,929.2	50.3089	13,929.2	52.3403	13,929.2	50.6195	13,929.2	41.7775	13,929.2	59.3573	13,929.2	40.1334	13,929.2	62.2587	13,929.2	42.6714	13,929.2	49.8068	13,929.2	42.3841	13,929.2	37.0497	13,929.2	40.2785	13,929.2	37.557	13,929.2	41.1816	13,929.2	37.319	13,929.2	34.4445	13,929.2	37.3213	13,929.2	42.3323	13,929.2	42.0977	13,929.2	29.5486
14,419.9	86.8795	14,419.9	84.534	14,419.9	85.2425	14,419.9	75.7378	14,419.9	78.5063	14,419.9	63.5249	14,419.9	62.4099	14,419.9	66.6688	14,419.9	65.2423	14,419.9	62.228	14,419.9	64.6455	14,419.9	47.5639	14,419.9	55.7748	14,419.9	54.0544	14,419.9	47.4183	14,419.9	54.0553	14,419.9	45.4549	14,419.9	53.2484	14,419.9	44.4677	14,419.9	47.6328	14,419.9	61.7736	14,419.9	33.3555	14,419.9	62.6318	14,419.9	41.5261	14,419.9	47.6056	14,419.9	45.3681	14,419.9	34.8362	14,419.9	43.1411	14,419.9	18.9338	14,419.9	45.377	14,419.9	23.4429	14,419.9	38.3258	14,419.9	39.1419	14,419.9	42.3592	14,419.9	31.6002	14,419.9	37.1949
14,928.2	86.1009	14,928.2	84.2229	14,928.2	84.9154	14,928.2	74.6154	14,928.2	77.6281	14,928.2	64.1833	14,928.2	54.2823	14,928.2	69.4514	14,928.2	68.583	14,928.2	66.4183	14,928.2	66.399	14,928.2	58.5245	14,928.2	62.1924	14,928.2	53.9722	14,928.2	47.8832	14,928.2	52.7641	14,928.2	41.9164	14,928.2	51.8046	14,928.2	51.5423	14,928.2	42.0925	14,928.2	64.6364	14,928.2	33.2407	14,928.2	65.8657	14,928.2	42.5232	14,928.2	52.2069	14,928.2	44.3404	14,928.2	37.8004	14,928.2	42.1608	14,928.2	28.0749	14,928.2	44.5106	14,928.2	33.121	14,928.2	33.6536	14,928.2	40.8431	14,928.2	35.8016	14,928.2	24.1904	14,928.2	33.5268
15,455.6	85.8746	15,455.6	83.9397	15,455.6	84.5207	15,455.6	73.4453	15,455.6	76.8202	15,455.6	67.0677	15,455.6	58.4565	15,455.6	71.0879	15,455.6	67.3466	15,455.6	66.484	15,455.6	65.6183	15,455.6	56.5971	15,455.6	59.3032	15,455.6	54.2206	15,455.6	50.1645	15,455.6	51.0753	15,455.6	43.8518	15,455.6	50.1792	15,455.6	51.711	15,455.6	42.4346	15,455.6	63.2084	15,455.6	32.2424	15,455.6	65.2166	15,455.6	41.1434	15,455.6	50.1323	15,455.6	42.7257	15,455.6	40.2409	15,455.6	37.5643	15,455.6	34.4284	15,455.6	40.6666	15,455.6	37.4205	15,455.6	37.0406	15,455.6	38.8443	15,455.6	36.5653	15,455.6	35.7812	15,455.6	22.9222
16,000.5	85.2778	16,000.5	82.9677	16,000.5	83.6951	16,000.5	71.615	16,000.5	75.7044	16,000.5	68.2762	16,000.5	61.1375	16,000.5	71.0806	16,000.5	68.2204	16,000.5	64.7078	16,000.5	65.1223	16,000.5	52.9784	16,000.5	56.383	16,000.5	52.0174	16,000.5	46.4725	16,000.5	50.1697	16,000.5	42.2795	16,000.5	47.1837	16,000.5	49.5129	16,000.5	44.5256	16,000.5	61.5076	16,000.5	31.5838	16,000.5	63.4514	16,000.5	39.217	16,000.5	48.279	16,000.5	42.0411	16,000.5	36.5972	16,000.5	37.6648	16,000.5	33.4403	16,000.5	40.8341	16,000.5	35.9142	16,000.5	39.8621	16,000.5	36.2177	16,000.5	39.5588	16,000.5	35.7696	16,000.5	29.774
16,564.5	84.749	16,564.5	82.1927	16,564.5	82.7481	16,564.5	70.2932	16,564.5	73.8886	16,564.5	68.5242	16,564.5	65.3408	16,564.5	70.4815	16,564.5	68.7714	16,564.5	61.7103	16,564.5	63.5958	16,564.5	45.1835	16,564.5	49.3929	16,564.5	52.7785	16,564.5	47.6509	16,564.5	51.2371	16,564.5	45.0458	16,564.5	47.9706	16,564.5	46.9215	16,564.5	44.3371	16,564.5	59.5182	16,564.5	31.6997	16,564.5	61.5986	16,564.5	37.5593	16,564.5	45.4681	16,564.5	40.0876	16,564.5	34.5643	16,564.5	35.8133	16,564.5	30.8165	16,564.5	39.3536	16,564.5	32.9932	16,564.5	39.4364	16,564.5	35.4851	16,564.5	39.4982	16,564.5	39.9199	16,564.5	20.025
17,148.9	84.216	17,148.9	81.6656	17,148.9	81.5475	17,148.9	68.6175	17,148.9	71.9487	17,148.9	69.9921	17,148.9	65.98	17,148.9	70.5621	17,148.9	67.6702	17,148.9	58.986	17,148.9	61.7217	17,148.9	50.6799	17,148.9	35.4582	17,148.9	55.0983	17,148.9	48.3404	17,148.9	49.5954	17,148.9	44.1267	17,148.9	45.4484	17,148.9	42.01	17,148.9	43.8627	17,148.9	57.9185	17,148.9	37.2772	17,148.9	59.5213	17,148.9	34.2911	17,148.9	43.9829	17,148.9	38.3537	17,148.9	35.1049	17,148.9	33.2698	17,148.9	31.2165	17,148.9	40.2289	17,148.9	33.1791	17,148.9	39.6537	17,148.9	31.7893	17,148.9	40.5313	17,148.9	39.474	17,148.9	25.9064
17,752.4	83.827	17,752.4	80.7218	17,752.4	80.6068	17,752.4	66.5786	17,752.4	69.5309	17,752.4	70.3823	17,752.4	68.57	17,752.4	69.035	17,752.4	67.3966	17,752.4	51.7466	17,752.4	58.7825	17,752.4	57.1466	17,752.4	47.1442	17,752.4	54.5059	17,752.4	51.8327	17,752.4	47.9588	17,752.4	43.8712	17,752.4	43.1289	17,752.4	35.3184	17,752.4	42.5111	17,752.4	56.0288	17,752.4	38.9184	17,752.4	57.1054	17,752.4	34.9908	17,752.4	43.4268	17,752.4	38.5942	17,752.4	35.6772	17,752.4	32.5199	17,752.4	29.4688	17,752.4	39.8576	17,752.4	33.3195	17,752.4	40.141	17,752.4	34.5042	17,752.4	40.628	17,752.4	39.3191	17,752.4	30.7722
18,379.4	83.3563	18,379.4	79.5749	18,379.4	79.7518	18,379.4	64.6948	18,379.4	65.9201	18,379.4	69.7662	18,379.4	69.4607	18,379.4	65.6469	18,379.4	65.6913	18,379.4	44.0753	18,379.4	54.531	18,379.4	58.2066	18,379.4	53.5956	18,379.4	52.6564	18,379.4	52.3053	18,379.4	47.3055	18,379.4	42.9049	18,379.4	39.9587	18,379.4	32.4032	18,379.4	40.6378	18,379.4	53.006	18,379.4	39.2402	18,379.4	54.9673	18,379.4	33.3878	18,379.4	42.4051	18,379.4	37.2385	18,379.4	35.4864	18,379.4	30.362	18,379.4	23.3557	18,379.4	37.916	18,379.4	33.0761	18,379.4	41.4188	18,379.4	36.1601	18,379.4	39.7876	18,379.4	37.4195	18,379.4	32.2489
19,026.9	83.1468	19,026.9	78.4918	19,026.9	79.0751	19,026.9	65.1431	19,026.9	63.9775	19,026.9	68.6959	19,026.9	69.38	19,026.9	61.5337	19,026.9	62.4281	19,026.9	54.7455	19,026.9	55.2288	19,026.9	57.2019	19,026.9	54.2033	19,026.9	51.6382	19,026.9	51.7736	19,026.9	44.3382	19,026.9	43.697	19,026.9	35.0872	19,026.9	25.1698	19,026.9	35.9126	19,026.9	50.4287	19,026.9	38.2875	19,026.9	53.4251	19,026.9	28.9847	19,026.9	42.9711	19,026.9	34.7341	19,026.9	36.0877	19,026.9	28.7567	19,026.9	20.2824	19,026.9	35.7136	19,026.9	30.9485	19,026.9	39.7039	19,026.9	35.4945	19,026.9	38.3316	19,026.9	33.3422	19,026.9	32.1935
19,697.8	82.9174	19,697.8	77.2348	19,697.8	78.1868	19,697.8	66.4713	19,697.8	63.4279	19,697.8	66.77	19,697.8	67.9461	19,697.8	55.9075	19,697.8	58.4569	19,697.8	55.6178	19,697.8	57.9717	19,697.8	55.036	19,697.8	54.6511	19,697.8	46.9316	19,697.8	48.7908	19,697.8	40.3524	19,697.8	41.3297	19,697.8	33.7312	19,697.8	18.6181	19,697.8	29.8954	19,697.8	51.1588	19,697.8	35.6659	19,697.8	52.9087	19,697.8	26.0866	19,697.8	42.8302	19,697.8	31.8541	19,697.8	31.9696	19,697.8	27.8453	19,697.8	21.2991	19,697.8	31.9216	19,697.8	25.5296	19,697.8	38.2958	19,697.8	29.2892	19,697.8	36.4953	19,697.8	27.636	19,697.8	28.9379
19,999.5	82.8922	19,999.5	76.6089	19,999.5	77.7872	19,999.5	66.7793	19,999.5	65.034	19,999.5	65.6545	19,999.5	66.8727	19,999.5	51.4056	19,999.5	58.768	19,999.5	56.2366	19,999.5	59.7882	19,999.5	54.0162	19,999.5	55.3665	19,999.5	43.9267	19,999.5	44.1814	19,999.5	36.8657	19,999.5	41.6314	19,999.5	27.2888	19,999.5	36.1104	19,999.5	28.9762	19,999.5	51.2493	19,999.5	33.5024	19,999.5	52.2519	19,999.5	29.5153	19,999.5	46.8097	19,999.5	42.9419	19,999.5	41.269	19,999.5	31.4197	19,999.5	31.6787	19,999.5	27.6187	19,999.5	28.2628	19,999.5	40.8321	19,999.5	32.2122	19,999.5	42.653	19,999.5	38.4144	19,999.5	33.4699
