"Early Reflections"											
"Floor Bounce"		"Ceiling Bounce"		"Front Wall Bounce"		"Side Wall Bounce"		"Rear Wall Bounce (full horizontal rear)"		"Total Early Reflection"	
"Frequency / Hz"	"Sound Pressure Level / dB (re 20 µPa/V)  [2.83  V @ 1. m]"	"Frequency / Hz"	"Sound Pressure Level / dB (re 20 µPa/V)  [2.83  V @ 1. m]"	"Frequency / Hz"	"Sound Pressure Level / dB (re 20 µPa/V)  [2.83  V @ 1. m]"	"Frequency / Hz"	"Sound Pressure Level / dB (re 20 µPa/V)  [2.83  V @ 1. m]"	"Frequency / Hz"	"Sound Pressure Level / dB (re 20 µPa/V)  [2.83  V @ 1. m]"	"Frequency / Hz"	"Sound Pressure Level / dB (re 20 µPa/V)  [2.83  V @ 1. m]"
20.5078	57.0655	20.5078	54.8033	20.5078	56.216	20.5078	55.4277	20.5078	61.1542	20.5078	57.6085
21.9727	59.3579	21.9727	57.9261	21.9727	58.6967	21.9727	58.2497	21.9727	62.9072	21.9727	59.8633
23.4375	60.9464	23.4375	60.6221	23.4375	60.549	23.4375	60.7121	23.4375	65.7107	23.4375	62.2711
24.9023	63.0114	24.9023	62.9904	24.9023	62.7287	24.9023	63.0656	24.9023	67.4511	24.9023	64.2981
26.3672	65.5649	26.3672	65.4408	26.3672	65.3242	26.3672	65.5751	26.3672	69.1506	26.3672	66.5016
27.832	67.2596	27.832	67.2485	27.832	67.0642	27.832	67.3801	27.832	70.7082	27.832	68.1896
29.2969	68.8185	29.2969	68.7805	29.2969	68.6237	29.2969	68.9532	29.2969	71.9911	29.2969	69.65
30.7617	70.2995	30.7617	70.374	30.7617	70.141	30.7617	70.5232	30.7617	73.3207	30.7617	71.1197
32.2266	71.7783	32.2266	71.8615	32.2266	71.6398	32.2266	72.0311	32.2266	74.5065	32.2266	72.5134
33.6914	73.01	33.6914	73.0287	33.6914	72.8605	33.6914	73.2131	33.6914	75.3921	33.6914	73.6162
35.1562	74.0586	35.1562	74.0514	35.1562	73.9056	35.1562	74.2528	35.1562	76.252	35.1562	74.6021
36.6211	74.9922	36.6211	74.9822	36.6211	74.8504	36.6211	75.1831	36.6211	76.9648	36.6211	75.4731
38.0859	75.7897	38.0859	75.7494	38.0859	75.6442	38.0859	75.9628	38.0859	77.5684	38.0859	76.2073
39.5508	76.5205	39.5508	76.4375	39.5508	76.3746	39.5508	76.6608	39.5508	78.068	39.5508	76.8619
41.0156	77.0658	41.0156	76.9937	41.0156	76.9165	41.0156	77.2122	41.0156	78.5712	41.0156	77.3987
42.4805	77.6341	42.4805	77.5234	42.4805	77.4856	42.4805	77.761	42.4805	78.8828	42.4805	77.8904
43.9453	78.0896	43.9453	77.9391	43.9453	77.9389	43.9453	78.1813	43.9453	79.1634	43.9453	78.288
45.4102	78.5366	45.4102	78.3665	45.4102	78.3804	45.4102	78.6184	45.4102	79.5203	45.4102	78.7065
46.875	78.9013	46.875	78.7296	46.875	78.7479	46.875	78.9796	46.875	79.8058	46.875	79.0518
48.3398	79.1836	48.3398	78.9823	48.3398	79.0225	48.3398	79.2474	48.3398	79.9888	48.3398	79.3008
51.2695	79.7515	51.2695	79.4969	51.2695	79.5781	51.2695	79.785	51.2695	80.3511	51.2695	79.803
52.7344	80.0521	52.7344	79.8096	52.7344	79.8998	52.7344	80.0685	52.7344	80.5122	52.7344	80.0753
54.1992	80.303	54.1992	80.0232	54.1992	80.1421	54.1992	80.2892	54.1992	80.6571	54.1992	80.2882
55.6641	80.4436	55.6641	80.1727	55.6641	80.2816	55.6641	80.4426	55.6641	80.783	55.6641	80.4296
58.5938	80.8496	58.5938	80.5327	58.5938	80.6609	58.5938	80.8285	58.5938	81.1223	58.5938	80.8034
60.0586	81.0267	60.0586	80.6893	60.0586	80.8359	60.0586	80.9947	60.0586	81.2222	60.0586	80.9575
62.9883	81.272	62.9883	80.9036	62.9883	81.076	62.9883	81.2305	62.9883	81.4156	62.9883	81.1831
64.4531	81.2997	64.4531	80.9217	64.4531	81.1021	64.4531	81.2575	64.4531	81.41	64.4531	81.2015
67.3828	81.4713	67.3828	81.089	67.3828	81.2726	67.3828	81.419	67.3828	81.5191	67.3828	81.357
68.8477	81.502	68.8477	81.1089	68.8477	81.293	68.8477	81.447	68.8477	81.5584	68.8477	81.3849
71.7773	81.7784	71.7773	81.342	71.7773	81.5674	71.7773	81.6728	71.7773	81.6319	71.7773	81.6009
74.707	82.0101	74.707	81.5471	74.707	81.7999	74.707	81.8852	74.707	81.7571	74.707	81.8026
77.6367	82.0832	77.6367	81.6269	77.6367	81.8869	77.6367	81.9535	77.6367	81.7617	77.6367	81.8653
79.1016	82.0779	79.1016	81.6009	79.1016	81.8765	79.1016	81.9326	79.1016	81.7011	79.1016	81.8411
82.0312	82.0131	82.0312	81.526	82.0312	81.811	82.0312	81.8683	82.0312	81.6272	82.0312	81.7726
84.9609	82.0149	84.9609	81.5546	84.9609	81.8285	84.9609	81.8737	84.9609	81.641	84.9609	81.7857
87.8906	82.0993	87.8906	81.5875	87.8906	81.8878	87.8906	81.9129	87.8906	81.631	87.8906	81.8279
90.8203	82.3035	90.8203	81.6987	90.8203	82.0973	90.8203	82.0528	90.8203	81.4798	90.8203	81.9365
95.2148	81.9614	95.2148	81.4028	95.2148	81.7303	95.2148	81.7576	95.2148	81.4486	95.2148	81.6651
98.1445	81.9291	98.1445	81.3255	98.1445	81.6927	98.1445	81.6987	98.1445	81.3674	98.1445	81.6086
101.074	81.7999	101.074	81.2183	101.074	81.5815	101.074	81.5974	101.074	81.3052	101.074	81.5056
105.469	82.0251	105.469	81.4519	105.469	81.8411	105.469	81.7322	105.469	81.1357	105.469	81.6483
108.398	82.1649	108.398	81.52	108.398	81.9717	108.398	81.8078	108.398	81.1094	108.398	81.7302
112.793	82.2152	112.793	81.5602	112.793	82.0271	112.793	81.8306	112.793	81.1107	112.793	81.7656
117.188	82.244	117.188	81.4588	117.188	82.0273	117.188	81.7907	117.188	80.8047	117.188	81.6935
120.117	82.3322	120.117	81.6125	120.117	82.1382	120.117	81.9152	120.117	80.8277	120.117	81.796
124.512	82.0229	124.512	81.3378	124.512	81.8335	124.512	81.6726	124.512	80.8687	124.512	81.5658
128.906	81.997	128.906	81.2223	128.906	81.7363	128.906	81.5866	128.906	80.9968	128.906	81.5225
133.301	82.039	133.301	81.2372	133.301	81.8113	133.301	81.5877	133.301	80.8363	133.301	81.5229
139.16	81.966	139.16	81.0965	139.16	81.7275	139.16	81.4617	139.16	80.6309	139.16	81.4018
143.555	81.9076	143.555	81.0016	143.555	81.6643	143.555	81.3738	143.555	80.5337	143.555	81.3231
147.949	81.8646	147.949	80.8671	147.949	81.608	147.949	81.2748	147.949	80.3847	147.949	81.2314
153.809	81.8225	153.809	80.837	153.809	81.5852	153.809	81.2055	153.809	80.2039	153.809	81.1677
159.668	81.9522	159.668	80.8429	159.668	81.6766	159.668	81.2537	159.668	80.2476	159.668	81.2361
165.527	82.059	165.527	81.0218	165.527	81.8146	165.527	81.3989	165.527	80.5018	165.527	81.3944
171.387	82.0376	171.387	81.0244	171.387	81.8182	171.387	81.3298	171.387	80.4246	171.387	81.3644
177.246	82.0262	177.246	80.927	177.246	81.8221	177.246	81.2538	177.246	80.0734	177.246	81.2746
183.105	81.7167	183.105	80.6251	183.105	81.5165	183.105	80.9929	183.105	79.872	183.105	80.9936
188.965	81.7128	188.965	80.5091	188.965	81.4895	188.965	80.8658	188.965	79.7557	188.965	80.9222
196.289	81.9274	196.289	80.7361	196.289	81.7299	196.289	81.0736	196.289	79.7042	196.289	81.104
203.613	81.8711	203.613	80.6855	203.613	81.6902	203.613	80.9118	203.613	79.517	203.613	81.0131
210.938	82.0491	210.938	80.6805	210.938	81.8067	210.938	81.0546	210.938	79.4321	210.938	81.0997
218.262	82.0277	218.262	80.6255	218.262	81.7576	218.262	81.0399	218.262	79.4739	218.262	81.0757
225.586	82.0041	225.586	80.5735	225.586	81.7757	225.586	80.9459	225.586	79.6035	225.586	81.0645
232.91	82.2499	232.91	80.8369	232.91	82.0795	232.91	81.086	232.91	79.3364	232.91	81.2371
241.699	82.4739	241.699	80.9899	241.699	82.2043	241.699	81.2418	241.699	79.0074	241.699	81.3428
250.488	82.3724	250.488	80.525	250.488	81.9996	250.488	81.0713	250.488	78.9971	250.488	81.1485
259.277	82.8701	259.277	81.1791	259.277	82.6761	259.277	81.4715	259.277	78.9785	259.277	81.6399
268.066	82.6467	268.066	80.8984	268.066	82.3313	268.066	81.3065	268.066	79.1966	268.066	81.4375
276.855	82.5236	276.855	80.7253	276.855	82.3101	276.855	81.2199	276.855	78.7738	276.855	81.3035
287.109	82.4431	287.109	80.7557	287.109	82.2522	287.109	81.3254	287.109	78.7915	287.109	81.2962
297.363	82.562	297.363	80.8643	297.363	82.473	297.363	81.3093	297.363	78.7894	297.363	81.3987
307.617	83.0109	307.617	81.4513	307.617	82.9447	307.617	81.8203	307.617	78.6988	307.617	81.8349
319.336	82.545	319.336	80.9673	319.336	82.362	319.336	81.1141	319.336	78.5824	319.336	81.3244
329.59	82.8238	329.59	81.133	329.59	82.7009	329.59	81.5705	329.59	78.2651	329.59	81.5732
341.309	82.4351	341.309	80.8622	341.309	82.303	341.309	81.4359	341.309	78.5321	341.309	81.32
353.027	82.5526	353.027	80.6069	353.027	82.4226	353.027	81.1004	353.027	77.9942	353.027	81.2158
366.211	82.5119	366.211	80.5599	366.211	82.3302	366.211	81.2936	366.211	77.6486	366.211	81.1792
379.395	83.1645	379.395	81.144	379.395	83.0805	379.395	81.63	379.395	77.3975	379.395	81.709
392.578	83.4415	392.578	80.857	392.578	83.1551	392.578	81.3548	392.578	78.2459	392.578	81.7774
405.762	84.4277	405.762	80.8753	405.762	84.1286	405.762	80.8025	405.762	78.3623	405.762	82.2898
420.41	84.3466	420.41	81.875	420.41	84.2956	420.41	81.8109	420.41	77.6759	420.41	82.5779
435.059	83.3169	435.059	80.833	435.059	83.0754	435.059	81.5685	435.059	77.4289	435.059	81.6886
451.172	83.9428	451.172	80.7249	451.172	83.832	451.172	81.6359	451.172	77.6678	451.172	82.1054
465.82	83.8387	465.82	81.0453	465.82	83.9397	465.82	82.2777	465.82	77.0069	465.82	82.233
483.398	83.2815	483.398	80.6795	483.398	83.4524	483.398	81.672	483.398	77.5825	483.398	81.7928
499.512	83.2529	499.512	80.2854	499.512	83.2815	499.512	81.5191	499.512	77.063	499.512	81.6071
517.09	83.3997	517.09	80.2827	517.09	83.4354	517.09	81.9083	517.09	77.1943	517.09	81.7819
536.133	82.3791	536.133	79.3692	536.133	82.9297	536.133	80.9123	536.133	76.9139	536.133	80.9917
555.176	83.0002	555.176	79.9785	555.176	83.8138	555.176	81.9941	555.176	76.3251	555.176	81.7077
574.219	83.1421	574.219	80.3096	574.219	83.4133	574.219	82.3318	574.219	76.3959	574.219	81.7475
594.727	82.4673	594.727	79.0595	594.727	82.5745	594.727	81.9089	594.727	77.8471	594.727	81.1663
615.234	83.4711	615.234	79.7842	615.234	83.7869	615.234	81.5541	615.234	78.0565	615.234	81.8392
637.207	83.912	637.207	80.1557	637.207	84.0499	637.207	81.5126	637.207	78.3384	637.207	82.1153
659.18	84.0234	659.18	79.7142	659.18	84.4912	659.18	80.8776	659.18	77.4275	659.18	82.069
682.617	83.8029	682.617	80.4378	682.617	84.4859	682.617	81.3258	682.617	77.5328	682.617	82.1692
707.52	83.6862	707.52	80.7849	707.52	84.4066	707.52	80.7608	707.52	77.9558	707.52	82.1002
732.422	83.1938	732.422	80.7348	732.422	84.133	732.422	80.3416	732.422	76.8874	732.422	81.7207
757.324	83.2728	757.324	81.0728	757.324	83.7877	757.324	79.7761	757.324	77.0307	757.324	81.6145
785.156	82.0994	785.156	82.5966	785.156	84.7111	785.156	81.9131	785.156	76.368	785.156	82.2456
811.523	82.3559	811.523	79.8785	811.523	83.6224	811.523	80.4103	811.523	76.331	811.523	81.1555
840.82	82.3988	840.82	81.7221	840.82	84.056	840.82	81.1628	840.82	75.523	840.82	81.7214
870.117	83.4381	870.117	81.1599	870.117	84.2671	870.117	81.872	870.117	75.5492	870.117	82.0856
900.879	83.3801	900.879	81.1638	900.879	84.9498	900.879	81.2745	900.879	73.8618	900.879	82.146
933.105	84.139	933.105	80.3292	933.105	84.1837	933.105	80.2153	933.105	74.9138	933.105	81.8489
965.332	83.4699	965.332	83.2161	965.332	85.7525	965.332	81.7069	965.332	73.3669	965.332	82.9134
1,000.49	83.7044	1,000.49	80.898	1,000.49	84.7762	1,000.49	79.9198	1,000.49	74.9743	1,000.49	81.9733
1,035.64	83.0525	1,035.64	81.1375	1,035.64	84.4466	1,035.64	79.6125	1,035.64	71.8585	1,035.64	81.5661
1,072.27	83.1605	1,072.27	80.2935	1,072.27	83.3203	1,072.27	79.0416	1,072.27	73.2864	1,072.27	81.0061
1,108.89	82.1579	1,108.89	80.4317	1,108.89	83.3986	1,108.89	78.018	1,108.89	69.8209	1,108.89	80.5421
1,148.44	82.6138	1,148.44	79.3096	1,148.44	82.7394	1,148.44	77.7586	1,148.44	71.7187	1,148.44	80.2555
1,189.45	83.2641	1,189.45	80.2155	1,189.45	82.548	1,189.45	78.453	1,189.45	71.5476	1,189.45	80.6539
1,230.47	83.4585	1,230.47	80.8243	1,230.47	83.1932	1,230.47	78.8262	1,230.47	70.5496	1,230.47	81.0647
1,274.41	83.7586	1,274.41	80.6487	1,274.41	83.9715	1,274.41	79.9659	1,274.41	72.8456	1,274.41	81.5941
1,319.82	84.1641	1,319.82	80.5802	1,319.82	84.4644	1,319.82	79.1222	1,319.82	71.3846	1,319.82	81.7618
1,366.7	84.9684	1,366.7	83.1322	1,366.7	84.4619	1,366.7	79.8149	1,366.7	71.8667	1,366.7	82.6017
1,413.57	84.8048	1,413.57	82.5359	1,413.57	84.7161	1,413.57	79.52	1,413.57	71.7719	1,413.57	82.4671
1,463.38	84.9115	1,463.38	81.2719	1,463.38	84.2605	1,463.38	79.7594	1,463.38	70.3344	1,463.38	82.1272
1,516.11	85.1141	1,516.11	81.539	1,516.11	84.4873	1,516.11	79.6591	1,516.11	70.7702	1,516.11	82.3176
1,568.85	84.2911	1,568.85	81.8146	1,568.85	83.2804	1,568.85	79.0081	1,568.85	71.3354	1,568.85	81.6226
1,624.51	83.7339	1,624.51	82.52	1,624.51	82.4322	1,624.51	78.0803	1,624.51	70.9456	1,624.51	81.2495
1,681.64	84.1281	1,681.64	81.8261	1,681.64	83.1671	1,681.64	79.1217	1,681.64	70.1526	1,681.64	81.5252
1,741.7	83.1932	1,741.7	80.8987	1,741.7	84.1031	1,741.7	79.5123	1,741.7	70.4735	1,741.7	81.3947
1,803.22	82.0511	1,803.22	79.5588	1,803.22	84.2244	1,803.22	79.3645	1,803.22	71.103	1,803.22	80.8955
1,866.21	82.3004	1,866.21	78.5591	1,866.21	83.7861	1,866.21	79.4098	1,866.21	71.4053	1,866.21	80.6583
1,932.13	81.4055	1,932.13	75.8722	1,932.13	82.4155	1,932.13	79.18	1,932.13	69.0648	1,932.13	79.4658
1,999.51	81.1484	1,999.51	75.4929	1,999.51	81.6095	1,999.51	78.6705	1,999.51	68.7754	1,999.51	78.9401
2,069.82	80.1631	2,069.82	74.4705	2,069.82	81.5511	2,069.82	78.7511	2,069.82	67.9784	2,069.82	78.5252
2,143.07	80.484	2,143.07	71.7717	2,143.07	81.9508	2,143.07	78.9315	2,143.07	67.8602	2,143.07	78.6668
2,219.24	79.6874	2,219.24	67.8605	2,219.24	81.6152	2,219.24	78.74	2,219.24	68.0563	2,219.24	78.1348
2,296.88	78.8352	2,296.88	68.1086	2,296.88	80.8029	2,296.88	78.2319	2,296.88	67.7265	2,296.88	77.4152
2,378.91	79.8241	2,378.91	71.2534	2,378.91	80.5377	2,378.91	78.1008	2,378.91	67.7003	2,378.91	77.6793
2,462.4	79.4103	2,462.4	72.9169	2,462.4	82.1696	2,462.4	79.394	2,462.4	68.4687	2,462.4	78.6413
2,548.83	79.3618	2,548.83	74.9127	2,548.83	83.5293	2,548.83	80.6426	2,548.83	68.7989	2,548.83	79.6965
2,639.65	79.8355	2,639.65	76.6681	2,639.65	83.2718	2,639.65	80.5745	2,639.65	69.4191	2,639.65	79.8047
2,731.93	80.9057	2,731.93	78.5307	2,731.93	82.4738	2,731.93	79.9743	2,731.93	68.5562	2,731.93	79.803
2,828.61	81.1764	2,828.61	80.9755	2,828.61	84.1769	2,828.61	81.0751	2,828.61	69.8212	2,828.61	81.1768
2,928.22	79.959	2,928.22	82.9315	2,928.22	85.3147	2,928.22	82.5843	2,928.22	71.3774	2,928.22	82.2037
3,030.76	80.5935	3,030.76	82.3656	3,030.76	84.4569	3,030.76	82.4763	3,030.76	72.073	3,030.76	81.8132
3,137.7	81.1103	3,137.7	82.1264	3,137.7	83.4829	3,137.7	82.1608	3,137.7	71.522	3,137.7	81.4236
3,249.02	82.1288	3,249.02	82.5678	3,249.02	84.0488	3,249.02	82.6337	3,249.02	71.9934	3,249.02	82.0256
3,363.28	82.5717	3,363.28	82.1851	3,363.28	83.6754	3,363.28	82.3328	3,363.28	72.2042	3,363.28	81.8582
3,481.93	82.6484	3,481.93	81.6849	3,481.93	83.577	3,481.93	82.1604	3,481.93	71.8437	3,481.93	81.6969
3,604.98	83.1981	3,604.98	81.4565	3,604.98	83.23	3,604.98	82.1541	3,604.98	71.9445	3,604.98	81.6963
3,732.42	82.9939	3,732.42	81.6444	3,732.42	83.212	3,732.42	82.2365	3,732.42	72.0202	3,732.42	81.6913
3,864.26	83.1696	3,864.26	81.8601	3,864.26	82.8336	3,864.26	82.2251	3,864.26	70.8309	3,864.26	81.6554
4,000.49	84.0499	4,000.49	81.6238	4,000.49	81.748	4,000.49	81.0259	4,000.49	70.1451	4,000.49	81.3734
4,141.11	83.1714	4,141.11	82.0555	4,141.11	82.4495	4,141.11	80.7977	4,141.11	69.1124	4,141.11	81.2851
4,287.6	83.0533	4,287.6	80.8513	4,287.6	82.1941	4,287.6	80.7311	4,287.6	68.8441	4,287.6	80.9017
4,438.48	82.8993	4,438.48	81.5635	4,438.48	81.925	4,438.48	80.6234	4,438.48	68.7394	4,438.48	80.913
4,595.21	83.7247	4,595.21	80.8132	4,595.21	82.4466	4,595.21	80.1664	4,595.21	68.5815	4,595.21	81.0933
4,756.35	82.7508	4,756.35	81.1714	4,756.35	82.0118	4,756.35	80.4131	4,756.35	69.0038	4,756.35	80.7643
4,924.8	81.7906	4,924.8	80.0942	4,924.8	82.3046	4,924.8	80.5635	4,924.8	69.4417	4,924.8	80.3812
5,097.66	81.2668	5,097.66	80.5373	5,097.66	82.1675	5,097.66	80.4486	5,097.66	69.2463	5,097.66	80.2616
5,277.83	81.4798	5,277.83	80.0343	5,277.83	81.3673	5,277.83	79.1619	5,277.83	68.2642	5,277.83	79.7085
5,463.87	81.8709	5,463.87	80.0363	5,463.87	81.9105	5,463.87	79.3243	5,463.87	66.6397	5,463.87	80.0013
5,657.23	80.6497	5,657.23	79.8519	5,657.23	81.409	5,657.23	78.0871	5,657.23	66.115	5,657.23	79.2384
5,856.45	79.8237	5,856.45	79.5231	5,856.45	81.3754	5,856.45	78.1946	5,856.45	65.1277	5,856.45	78.9445
6,062.99	80.7051	6,062.99	79.3018	6,062.99	81.977	6,062.99	78.251	6,062.99	65.8652	6,062.99	79.3565
6,276.86	79.5973	6,276.86	79.1046	6,276.86	81.7155	6,276.86	78.4602	6,276.86	65.9072	6,276.86	78.9762
6,498.05	78.3955	6,498.05	79.1212	6,498.05	81.7005	6,498.05	78.4032	6,498.05	65.2932	6,498.05	78.708
6,726.56	79.439	6,726.56	78.6087	6,726.56	81.7836	6,726.56	78.6867	6,726.56	65.0023	6,726.56	78.9023
6,963.87	80.3219	6,963.87	78.3827	6,963.87	80.8082	6,963.87	78.0527	6,963.87	64.2397	6,963.87	78.6163
7,209.96	80.272	7,209.96	78.2145	7,209.96	81.0462	7,209.96	77.7561	7,209.96	63.6472	7,209.96	78.5969
7,464.84	79.6824	7,464.84	77.7469	7,464.84	80.9068	7,464.84	77.6632	7,464.84	63.4534	7,464.84	78.2775
7,727.05	79.5913	7,727.05	77.3383	7,727.05	80.826	7,727.05	77.2498	7,727.05	62.5324	7,727.05	78.0757
7,999.51	80.1215	7,999.51	76.9689	7,999.51	81.5637	7,999.51	77.1744	7,999.51	62.9625	7,999.51	78.4521
8,282.23	80.2544	8,282.23	76.7634	8,282.23	81.179	8,282.23	76.4165	8,282.23	61.7708	8,282.23	78.1955
8,573.73	78.6713	8,573.73	76.2164	8,573.73	81.4911	8,573.73	76.4807	8,573.73	61.111	8,573.73	77.8134
8,876.95	79.306	8,876.95	75.9384	8,876.95	81.2897	8,876.95	75.957	8,876.95	60.1208	8,876.95	77.7744
9,188.96	79.5314	9,188.96	75.5106	9,188.96	81.2829	9,188.96	76.0537	9,188.96	60.8772	9,188.96	77.7994
9,514.16	79.0556	9,514.16	75.1255	9,514.16	80.8801	9,514.16	75.6951	9,514.16	60.2437	9,514.16	77.3821
9,849.61	79.2497	9,849.61	74.9917	9,849.61	80.8916	9,849.61	75.0748	9,849.61	58.4611	9,849.61	77.3458
10,196.8	79.3884	10,196.8	74.8707	10,196.8	81.0749	10,196.8	74.2338	10,196.8	56.5445	10,196.8	77.3656
10,555.7	79.392	10,555.7	74.7005	10,555.7	81.0716	10,555.7	73.3824	10,555.7	55.5061	10,555.7	77.2686
10,927.7	79.504	10,927.7	74.7341	10,927.7	81.0469	10,927.7	72.3106	10,927.7	52.9333	10,927.7	77.217
11,313	78.9437	11,313	74.6847	11,313	81.1313	11,313	72.0242	11,313	51.5858	11,313	77.0527
11,712.9	78.651	11,712.9	74.3638	11,712.9	81.2548	11,712.9	72.557	11,712.9	53.3078	11,712.9	77.0302
12,126	78.7493	12,126	73.6512	12,126	81.1662	12,126	72.8384	12,126	54.6765	12,126	76.9632
12,553.7	78.4968	12,553.7	72.9882	12,553.7	81.1191	12,553.7	73.0002	12,553.7	54.5443	12,553.7	76.8174
12,996.1	78.4619	12,996.1	72.2758	12,996.1	81.2989	12,996.1	72.9962	12,996.1	54.1884	12,996.1	76.8507
13,454.6	77.8732	13,454.6	71.4886	13,454.6	81.3853	13,454.6	73.031	13,454.6	53.8541	13,454.6	76.689
13,929.2	77.6594	13,929.2	70.5774	13,929.2	81.5741	13,929.2	73.0793	13,929.2	53.8733	13,929.2	76.7026
14,419.9	77.3591	14,419.9	69.2796	14,419.9	81.6348	14,419.9	72.7051	14,419.9	52.5855	14,419.9	76.579
14,928.2	76.9238	14,928.2	67.6462	14,928.2	81.4787	14,928.2	71.6289	14,928.2	50.3156	14,928.2	76.2383
15,455.6	76.2963	15,455.6	65.9188	15,455.6	81.1039	15,455.6	70.103	15,455.6	48.0145	15,455.6	75.7001
16,000.5	75.8795	16,000.5	64.0405	16,000.5	80.628	16,000.5	68.2918	16,000.5	44.3355	16,000.5	75.1479
16,564.5	75.1935	16,564.5	61.6993	16,564.5	80.0793	16,564.5	66.537	16,564.5	41.3402	16,564.5	74.4996
17,148.9	74.2993	17,148.9	58.6959	17,148.9	79.44	17,148.9	64.5985	17,148.9	37.8249	17,148.9	73.7454
17,752.4	73.2879	17,752.4	55.6773	17,752.4	78.626	17,752.4	62.2538	17,752.4	35.3344	17,752.4	72.8444
18,379.4	72.1949	18,379.4	53.2701	18,379.4	77.555	18,379.4	59.5227	18,379.4	38.586	18,379.4	71.7401
19,026.9	70.6943	19,026.9	51.6296	19,026.9	76.3437	19,026.9	56.8008	19,026.9	38.152	19,026.9	70.4496
19,697.8	68.8661	19,697.8	51.8674	19,697.8	75.1082	19,697.8	54.8553	19,697.8	35.2632	19,697.8	69.094
19,999.5	68.3539	19,999.5	52.8446	19,999.5	74.6322	19,999.5	54.722	19,999.5	38.3263	19,999.5	68.6209
