"SPL Horizontal"
"On-Axis"		"10°"		"-10°"		"20°"		"-20°"		"30°"		"-30°"		"40°"		"-40°"		"50°"		"-50°"		"60°"		"-60°"		"70°"		"-70°"		"80°"		"-80°"		"90°"		"-90°"		"100°"		"-100°"		"110°"		"-110°"		"120°"		"-120°"		"130°"		"-130°"		"140°"		"-140°"		"150°"		"-150°"		"160°"		"-160°"		"170°"		"-170°"		"180°"
"Frequency / Hz"	"Sound Pressure Level / dB (re 20 µPa/V)  [2.83  V @ 1. m]"	"Frequency / Hz"	"Sound Pressure Level / dB (re 20 µPa/V)  [2.83  V @ 1. m]"	"Frequency / Hz"	"Sound Pressure Level / dB (re 20 µPa/V)  [2.83  V @ 1. m]"	"Frequency / Hz"	"Sound Pressure Level / dB (re 20 µPa/V)  [2.83  V @ 1. m]"	"Frequency / Hz"	"Sound Pressure Level / dB (re 20 µPa/V)  [2.83  V @ 1. m]"	"Frequency / Hz"	"Sound Pressure Level / dB (re 20 µPa/V)  [2.83  V @ 1. m]"	"Frequency / Hz"	"Sound Pressure Level / dB (re 20 µPa/V)  [2.83  V @ 1. m]"	"Frequency / Hz"	"Sound Pressure Level / dB (re 20 µPa/V)  [2.83  V @ 1. m]"	"Frequency / Hz"	"Sound Pressure Level / dB (re 20 µPa/V)  [2.83  V @ 1. m]"	"Frequency / Hz"	"Sound Pressure Level / dB (re 20 µPa/V)  [2.83  V @ 1. m]"	"Frequency / Hz"	"Sound Pressure Level / dB (re 20 µPa/V)  [2.83  V @ 1. m]"	"Frequency / Hz"	"Sound Pressure Level / dB (re 20 µPa/V)  [2.83  V @ 1. m]"	"Frequency / Hz"	"Sound Pressure Level / dB (re 20 µPa/V)  [2.83  V @ 1. m]"	"Frequency / Hz"	"Sound Pressure Level / dB (re 20 µPa/V)  [2.83  V @ 1. m]"	"Frequency / Hz"	"Sound Pressure Level / dB (re 20 µPa/V)  [2.83  V @ 1. m]"	"Frequency / Hz"	"Sound Pressure Level / dB (re 20 µPa/V)  [2.83  V @ 1. m]"	"Frequency / Hz"	"Sound Pressure Level / dB (re 20 µPa/V)  [2.83  V @ 1. m]"	"Frequency / Hz"	"Sound Pressure Level / dB (re 20 µPa/V)  [2.83  V @ 1. m]"	"Frequency / Hz"	"Sound Pressure Level / dB (re 20 µPa/V)  [2.83  V @ 1. m]"	"Frequency / Hz"	"Sound Pressure Level / dB (re 20 µPa/V)  [2.83  V @ 1. m]"	"Frequency / Hz"	"Sound Pressure Level / dB (re 20 µPa/V)  [2.83  V @ 1. m]"	"Frequency / Hz"	"Sound Pressure Level / dB (re 20 µPa/V)  [2.83  V @ 1. m]"	"Frequency / Hz"	"Sound Pressure Level / dB (re 20 µPa/V)  [2.83  V @ 1. m]"	"Frequency / Hz"	"Sound Pressure Level / dB (re 20 µPa/V)  [2.83  V @ 1. m]"	"Frequency / Hz"	"Sound Pressure Level / dB (re 20 µPa/V)  [2.83  V @ 1. m]"	"Frequency / Hz"	"Sound Pressure Level / dB (re 20 µPa/V)  [2.83  V @ 1. m]"	"Frequency / Hz"	"Sound Pressure Level / dB (re 20 µPa/V)  [2.83  V @ 1. m]"	"Frequency / Hz"	"Sound Pressure Level / dB (re 20 µPa/V)  [2.83  V @ 1. m]"	"Frequency / Hz"	"Sound Pressure Level / dB (re 20 µPa/V)  [2.83  V @ 1. m]"	"Frequency / Hz"	"Sound Pressure Level / dB (re 20 µPa/V)  [2.83  V @ 1. m]"	"Frequency / Hz"	"Sound Pressure Level / dB (re 20 µPa/V)  [2.83  V @ 1. m]"	"Frequency / Hz"	"Sound Pressure Level / dB (re 20 µPa/V)  [2.83  V @ 1. m]"	"Frequency / Hz"	"Sound Pressure Level / dB (re 20 µPa/V)  [2.83  V @ 1. m]"	"Frequency / Hz"	"Sound Pressure Level / dB (re 20 µPa/V)  [2.83  V @ 1. m]"	"Frequency / Hz"	"Sound Pressure Level / dB (re 20 µPa/V)  [2.83  V @ 1. m]"	"Frequency / Hz"	"Sound Pressure Level / dB (re 20 µPa/V)  [2.83  V @ 1. m]"
20.5078	57.6262	20.5078	57.6329	20.5078	57.5504	20.5078	57.5862	20.5078	57.4009	20.5078	57.5132	20.5078	57.1866	20.5078	57.4515	20.5078	56.9328	20.5078	57.4464	20.5078	56.6857	20.5078	57.5426	20.5078	56.5147	20.5078	57.7718	20.5078	56.5035	20.5078	58.1414	20.5078	56.7266	20.5078	58.6329	20.5078	57.2156	20.5078	59.2107	20.5078	57.9404	20.5078	59.8357	20.5078	58.8217	20.5078	60.4733	20.5078	59.7615	20.5078	61.0944	20.5078	60.6691	20.5078	61.6717	20.5078	61.4736	20.5078	62.1765	20.5078	62.1256	20.5078	62.5778	20.5078	62.5954	20.5078	62.8444	20.5078	62.8696	20.5078	62.9487
21.9727	58.6036	21.9727	58.5637	21.9727	58.5179	21.9727	58.4041	21.9727	58.3024	21.9727	58.1323	21.9727	57.9552	21.9727	57.7603	21.9727	57.4812	21.9727	57.3099	21.9727	56.9	21.9727	56.822	21.9727	56.2628	21.9727	56.3695	21.9727	55.6782	21.9727	56.0642	21.9727	55.3283	21.9727	56.037	21.9727	55.4158	21.9727	56.3751	21.9727	56.0176	21.9727	57.0575	21.9727	57.0039	21.9727	57.9641	21.9727	58.1476	21.9727	58.9463	21.9727	59.2607	21.9727	59.8817	21.9727	60.2308	21.9727	60.6871	21.9727	61.0002	21.9727	61.311	21.9727	61.5417	21.9727	61.7221	21.9727	61.8437	21.9727	61.9028
23.4375	58.4802	23.4375	58.4363	23.4375	58.3977	23.4375	58.2701	23.4375	58.1902	23.4375	57.9925	23.4375	57.8661	23.4375	57.6282	23.4375	57.4468	23.4375	57.2255	23.4375	56.98	23.4375	56.8702	23.4375	56.5574	23.4375	56.6891	23.4375	56.3242	23.4375	56.8173	23.4375	56.4433	23.4375	57.3227	23.4375	56.9982	23.4375	58.1537	23.4375	57.9208	23.4375	59.1754	23.4375	59.0435	23.4375	60.2471	23.4375	60.2006	23.4375	61.2641	23.4375	61.2774	23.4375	62.1596	23.4375	62.2059	23.4375	62.8926	23.4375	62.9483	23.4375	63.4369	23.4375	63.4842	23.4375	63.7762	23.4375	63.8028	23.4375	63.8999
24.9023	60.2453	24.9023	60.1427	24.9023	60.2176	24.9023	59.9141	24.9023	60.0605	24.9023	59.5718	24.9023	59.7811	24.9023	59.1426	24.9023	59.3971	24.9023	58.68	24.9023	58.946	24.9023	58.2787	24.9023	58.4993	24.9023	58.0754	24.9023	58.175	24.9023	58.2078	24.9023	58.1233	24.9023	58.731	24.9023	58.4592	24.9023	59.573	24.9023	59.1788	24.9023	60.5867	24.9023	60.1575	24.9023	61.6313	24.9023	61.2331	24.9023	62.6078	24.9023	62.2749	24.9023	63.4552	24.9023	63.1983	24.9023	64.1372	24.9023	63.9541	24.9023	64.6312	24.9023	64.515	24.9023	64.9227	24.9023	64.8666	24.9023	65.0026
26.3672	60.1967	26.3672	60.1096	26.3672	60.1877	26.3672	59.9401	26.3672	60.0815	26.3672	59.7188	26.3672	59.8908	26.3672	59.4986	26.3672	59.6461	26.3672	59.3588	26.3672	59.4048	26.3672	59.3964	26.3672	59.2565	26.3672	59.6933	26.3672	59.3132	26.3672	60.2738	26.3672	59.6676	26.3672	61.0877	26.3672	60.3373	26.3672	62.0401	26.3672	61.2506	26.3672	63.0331	26.3672	62.2893	26.3672	63.9896	26.3672	63.3411	26.3672	64.8562	26.3672	64.3235	26.3672	65.5966	26.3672	65.1828	26.3672	66.1861	26.3672	65.8857	26.3672	66.6068	26.3672	66.4122	26.3672	66.8459	26.3672	66.7504	26.3672	66.8952
27.832	62.4743	27.832	62.4816	27.832	62.3906	27.832	62.423	27.832	62.2293	27.832	62.3188	27.832	61.9996	27.832	62.2013	27.832	61.7262	27.832	62.1164	27.832	61.4554	27.832	62.1213	27.832	61.2605	27.832	62.2733	27.832	61.2351	27.832	62.6109	27.832	61.4638	27.832	63.1355	27.832	61.9775	27.832	63.8088	27.832	62.7316	27.832	64.5677	27.832	63.6304	27.832	65.3448	27.832	64.5707	27.832	66.0811	27.832	65.4691	27.832	66.7304	27.832	66.2676	27.832	67.2581	27.832	66.9283	27.832	67.6387	27.832	67.4276	27.832	67.8546	27.832	67.7517	27.832	67.8941
29.2969	64.1403	29.2969	64.1014	29.2969	64.1133	29.2969	64.0016	29.2969	64.0248	29.2969	63.8558	29.2969	63.8884	29.2969	63.6918	29.2969	63.7293	29.2969	63.5526	29.2969	63.5867	29.2969	63.496	29.2969	63.5134	29.2969	63.5848	29.2969	63.5689	29.2969	63.8664	29.2969	63.8026	29.2969	64.3503	29.2969	64.2328	29.2969	65.0008	29.2969	64.8364	29.2969	65.7521	29.2969	65.5573	29.2969	66.5313	29.2969	66.3265	29.2969	67.2748	29.2969	67.0789	29.2969	67.9334	29.2969	67.7616	29.2969	68.4717	29.2969	68.3349	29.2969	68.865	29.2969	68.7702	29.2969	69.0971	29.2969	69.0487	29.2969	69.1591
30.7617	65.3398	30.7617	65.3139	30.7617	65.3179	30.7617	65.2483	30.7617	65.2489	30.7617	65.1617	30.7617	65.1434	30.7617	65.0834	30.7617	65.0232	30.7617	65.0539	30.7617	64.9227	30.7617	65.1201	30.7617	64.8884	30.7617	65.3244	30.7617	64.972	30.7617	65.6897	30.7617	65.2167	30.7617	66.2084	30.7617	65.6394	30.7617	66.8438	30.7617	66.2215	30.7617	67.5425	30.7617	66.9149	30.7617	68.2483	30.7617	67.6576	30.7617	68.9116	30.7617	68.3892	30.7617	69.4929	30.7617	69.0594	30.7617	69.9615	30.7617	69.6293	30.7617	70.2953	30.7617	70.0711	30.7617	70.4788	30.7617	70.3661	30.7617	70.5033
32.2266	67.4483	32.2266	67.4592	32.2266	67.4099	32.2266	67.4478	32.2266	67.3459	32.2266	67.4269	32.2266	67.2661	32.2266	67.4166	32.2266	67.1887	32.2266	67.4436	32.2266	67.1405	32.2266	67.5384	32.2266	67.1552	32.2266	67.7293	32.2266	67.2686	32.2266	68.0341	32.2266	67.5094	32.2266	68.4534	32.2266	67.8885	32.2266	68.9679	32.2266	68.3931	32.2266	69.5432	32.2266	68.9886	32.2266	70.1369	32.2266	69.6283	32.2266	70.7069	32.2266	70.2632	32.2266	71.2155	32.2266	70.8497	32.2266	71.6319	32.2266	71.3522	32.2266	71.9323	32.2266	71.7436	32.2266	72.1	32.2266	72.005	32.2266	72.1252
33.6914	68.7781	33.6914	68.7822	33.6914	68.7526	33.6914	68.7693	33.6914	68.7078	33.6914	68.7504	33.6914	68.6525	33.6914	68.7431	33.6914	68.6025	33.6914	68.7707	33.6914	68.5806	33.6914	68.8599	33.6914	68.6147	33.6914	69.0359	33.6914	68.7339	33.6914	69.3156	33.6914	68.9614	33.6914	69.701	33.6914	69.3067	33.6914	70.1766	33.6914	69.7604	33.6914	70.7124	33.6914	70.2954	33.6914	71.2698	33.6914	70.8728	33.6914	71.8088	33.6914	71.4505	33.6914	72.2928	33.6914	71.9885	33.6914	72.6911	33.6914	72.4527	33.6914	72.98	33.6914	72.8163	33.6914	73.1428	33.6914	73.0596	33.6914	73.1701
35.1562	70.2259	35.1562	70.2318	35.1562	70.2056	35.1562	70.2271	35.1562	70.1725	35.1562	70.2212	35.1562	70.1341	35.1562	70.2286	35.1562	70.1033	35.1562	70.2684	35.1562	70.0988	35.1562	70.3622	35.1562	70.1433	35.1562	70.5304	35.1562	70.2604	35.1562	70.7873	35.1562	70.4692	35.1562	71.1354	35.1562	70.7782	35.1562	71.5633	35.1562	71.1817	35.1562	72.0466	35.1562	71.6588	35.1562	72.5525	35.1562	72.1779	35.1562	73.0452	35.1562	72.7025	35.1562	73.4904	35.1562	73.196	35.1562	73.8586	35.1562	73.6259	35.1562	74.1261	35.1562	73.9653	35.1562	74.2762	35.1562	74.1942	35.1562	74.2996
36.6211	71.7342	36.6211	71.737	36.6211	71.7201	36.6211	71.7317	36.6211	71.6963	36.6211	71.7257	36.6211	71.6689	36.6211	71.7311	36.6211	71.6486	36.6211	71.7637	36.6211	71.6504	36.6211	71.8419	36.6211	71.6928	36.6211	71.9835	36.6211	71.7951	36.6211	72.202	36.6211	71.9738	36.6211	72.5019	36.6211	72.2382	36.6211	72.876	36.6211	72.5857	36.6211	73.3052	36.6211	73.0015	36.6211	73.7612	36.6211	73.4598	36.6211	74.2113	36.6211	73.9287	36.6211	74.6226	36.6211	74.3747	36.6211	74.9659	36.6211	74.7666	36.6211	75.2173	36.6211	75.0779	36.6211	75.3599	36.6211	75.2882	36.6211	75.3841
38.0859	72.7861	38.0859	72.7762	38.0859	72.785	38.0859	72.7584	38.0859	72.7742	38.0859	72.7404	38.0859	72.7595	38.0859	72.7345	38.0859	72.7513	38.0859	72.7567	38.0859	72.764	38.0859	72.8259	38.0859	72.8151	38.0859	72.9603	38.0859	72.9228	38.0859	73.1735	38.0859	73.102	38.0859	73.4702	38.0859	73.3605	38.0859	73.8426	38.0859	73.6955	38.0859	74.2708	38.0859	74.0928	38.0859	74.7258	38.0859	74.5286	38.0859	75.1744	38.0859	74.9736	38.0859	75.5839	38.0859	75.3967	38.0859	75.9256	38.0859	75.7684	38.0859	76.1765	38.0859	76.0633	38.0859	76.3206	38.0859	76.2614	38.0859	76.3493
39.5508	73.8579	39.5508	73.8669	39.5508	73.8542	39.5508	73.8839	39.5508	73.8566	39.5508	73.915	39.5508	73.8695	39.5508	73.9695	39.5508	73.9004	39.5508	74.0583	39.5508	73.9593	39.5508	74.1933	39.5508	74.0581	39.5508	74.3843	39.5508	74.2079	39.5508	74.6369	39.5508	74.4176	39.5508	74.9498	39.5508	74.6907	39.5508	75.314	39.5508	75.0233	39.5508	75.7126	39.5508	75.4038	39.5508	76.1235	39.5508	75.8133	39.5508	76.5211	39.5508	76.228	39.5508	76.8801	39.5508	76.6217	39.5508	77.1769	39.5508	76.9688	39.5508	77.3922	39.5508	77.2465	39.5508	77.5115	39.5508	77.4365	39.5508	77.5267
41.0156	75.2954	41.0156	75.3209	41.0156	75.2761	41.0156	75.3539	41.0156	75.2643	41.0156	75.3983	41.0156	75.2639	41.0156	75.4601	41.0156	75.2811	41.0156	75.5471	41.0156	75.3239	41.0156	75.6677	41.0156	75.4017	41.0156	75.8298	41.0156	75.5235	41.0156	76.0386	41.0156	75.6968	41.0156	76.2949	41.0156	75.9256	41.0156	76.5939	41.0156	76.2084	41.0156	76.9242	41.0156	76.537	41.0156	77.2688	41.0156	76.8966	41.0156	77.6069	41.0156	77.2668	41.0156	77.9159	41.0156	77.6236	41.0156	78.1736	41.0156	77.9427	41.0156	78.3608	41.0156	78.2013	41.0156	78.4626	41.0156	78.3812	41.0156	78.47
42.4805	76.5386	42.4805	76.546	42.4805	76.5356	42.4805	76.5595	42.4805	76.5373	42.4805	76.5828	42.4805	76.546	42.4805	76.621	42.4805	76.5661	42.4805	76.6807	42.4805	76.6036	42.4805	76.7693	42.4805	76.6662	42.4805	76.894	42.4805	76.7624	42.4805	77.0602	42.4805	76.8999	42.4805	77.2703	42.4805	77.0839	42.4805	77.5215	42.4805	77.3152	42.4805	77.8053	42.4805	77.5882	42.4805	78.1076	42.4805	77.891	42.4805	78.4097	42.4805	78.206	42.4805	78.6907	42.4805	78.5118	42.4805	78.9294	42.4805	78.7858	42.4805	79.1071	42.4805	79.0068	42.4805	79.2092	42.4805	79.1577	42.4805	79.2268
43.9453	77.3901	43.9453	77.4011	43.9453	77.3845	43.9453	77.4187	43.9453	77.3848	43.9453	77.4458	43.9453	77.3933	43.9453	77.4865	43.9453	77.414	43.9453	77.5463	43.9453	77.4523	43.9453	77.6314	43.9453	77.5145	43.9453	77.7479	43.9453	77.6075	43.9453	77.9003	43.9453	77.7372	43.9453	78.0906	43.9453	77.9075	43.9453	78.3169	43.9453	78.1184	43.9453	78.5721	43.9453	78.3652	43.9453	78.8441	43.9453	78.6381	43.9453	79.1167	43.9453	78.9221	43.9453	79.3708	43.9453	79.1986	43.9453	79.5871	43.9453	79.4478	43.9453	79.7481	43.9453	79.6501	43.9453	79.8399	43.9453	79.7894	43.9453	79.8543
45.4102	78.245	45.4102	78.2531	45.4102	78.2411	45.4102	78.2664	45.4102	78.242	45.4102	78.2872	45.4102	78.2495	45.4102	78.3194	45.4102	78.2672	45.4102	78.3678	45.4102	78.2996	45.4102	78.4379	45.4102	78.3525	45.4102	78.5354	45.4102	78.4319	45.4102	78.665	45.4102	78.5435	45.4102	78.8294	45.4102	78.6911	45.4102	79.0276	45.4102	78.8758	45.4102	79.2543	45.4102	79.0942	45.4102	79.4992	45.4102	79.3381	45.4102	79.7479	45.4102	79.5943	45.4102	79.9826	45.4102	79.8456	45.4102	80.1848	45.4102	80.0732	45.4102	80.3372	45.4102	80.2583	45.4102	80.4259	45.4102	80.3851	45.4102	80.4426
46.875	78.8655	46.875	78.8734	46.875	78.864	46.875	78.8884	46.875	78.8691	46.875	78.9126	46.875	78.8825	46.875	78.949	46.875	78.9069	46.875	79.0016	46.875	78.9461	46.875	79.075	46.875	79.005	46.875	79.1738	46.875	79.0884	46.875	79.3018	46.875	79.2012	46.875	79.4611	46.875	79.3464	46.875	79.6509	46.875	79.5246	46.875	79.8664	46.875	79.7327	46.875	80.0985	46.875	79.963	46.875	80.334	46.875	80.2036	46.875	80.5564	46.875	80.4389	46.875	80.7483	46.875	80.6516	46.875	80.8934	46.875	80.8245	46.875	80.9784	46.875	80.9425	46.875	80.9954
48.3398	79.4654	48.3398	79.4745	48.3398	79.4649	48.3398	79.4928	48.3398	79.4732	48.3398	79.5219	48.3398	79.4916	48.3398	79.564	48.3398	79.522	48.3398	79.6222	48.3398	79.5675	48.3398	79.6998	48.3398	79.6315	48.3398	79.8003	48.3398	79.7178	48.3398	79.9263	48.3398	79.83	48.3398	80.0793	48.3398	79.9704	48.3398	80.2583	48.3398	80.1393	48.3398	80.459	48.3398	80.3339	48.3398	80.6736	48.3398	80.5476	48.3398	80.8903	48.3398	80.7698	48.3398	81.0948	48.3398	80.9867	48.3398	81.2714	48.3398	81.1826	48.3398	81.4049	48.3398	81.3417	48.3398	81.4834	48.3398	81.4505	48.3398	81.4991
51.2695	80.4815	51.2695	80.4991	51.2695	80.4755	51.2695	80.5282	51.2695	80.4812	51.2695	80.5695	51.2695	80.4994	51.2695	80.6237	51.2695	80.5312	51.2695	80.6917	51.2695	80.578	51.2695	80.7747	51.2695	80.6418	51.2695	80.8738	51.2695	80.7244	51.2695	80.99	51.2695	80.8275	51.2695	81.1234	51.2695	80.9523	51.2695	81.2731	51.2695	81.0985	51.2695	81.4365	51.2695	81.264	51.2695	81.6082	51.2695	81.444	51.2695	81.7803	51.2695	81.6306	51.2695	81.9422	51.2695	81.8132	51.2695	82.0817	51.2695	81.9791	51.2695	82.1866	51.2695	82.1152	51.2695	82.2465	51.2695	82.2099	51.2695	82.2549
52.7344	80.8022	52.7344	80.8202	52.7344	80.797	52.7344	80.8508	52.7344	80.8049	52.7344	80.894	52.7344	80.8263	52.7344	80.9497	52.7344	80.8621	52.7344	81.0181	52.7344	80.9129	52.7344	81.0995	52.7344	80.9799	52.7344	81.1944	52.7344	81.0641	52.7344	81.3031	52.7344	81.1663	52.7344	81.4259	52.7344	81.2867	52.7344	81.5621	52.7344	81.4248	52.7344	81.7098	52.7344	81.5781	52.7344	81.8648	52.7344	81.7425	52.7344	82.0204	52.7344	81.911	52.7344	82.1674	52.7344	82.0744	52.7344	82.295	52.7344	82.2218	52.7344	82.3923	52.7344	82.3416	52.7344	82.4496	52.7344	82.4237	52.7344	82.4607
54.1992	81.0894	54.1992	81.103	54.1992	81.0887	54.1992	81.1291	54.1992	81.1009	54.1992	81.1673	54.1992	81.1263	54.1992	81.2173	54.1992	81.1648	54.1992	81.2786	54.1992	81.2165	54.1992	81.3511	54.1992	81.2815	54.1992	81.4347	54.1992	81.3599	54.1992	81.5297	54.1992	81.4517	54.1992	81.6362	54.1992	81.5568	54.1992	81.7538	54.1992	81.6746	54.1992	81.881	54.1992	81.8034	54.1992	82.0144	54.1992	81.9401	54.1992	82.1484	54.1992	82.0797	54.1992	82.2754	54.1992	82.2149	54.1992	82.3861	54.1992	82.337	54.1992	82.471	54.1992	82.4362	54.1992	82.5218	54.1992	82.5038	54.1992	82.5333
55.6641	81.424	55.6641	81.4402	55.6641	81.4176	55.6641	81.4654	55.6641	81.4216	55.6641	81.4987	55.6641	81.4363	55.6641	81.5393	55.6641	81.4616	55.6641	81.5865	55.6641	81.4976	55.6641	81.64	55.6641	81.5437	55.6641	81.7	55.6641	81.5999	55.6641	81.7672	55.6641	81.6659	55.6641	81.8423	55.6641	81.7417	55.6641	81.9258	55.6641	81.8272	55.6641	82.0171	55.6641	81.922	55.6641	82.1144	55.6641	82.0247	55.6641	82.2138	55.6641	82.1321	55.6641	82.3096	55.6641	82.2389	55.6641	82.3941	55.6641	82.3377	55.6641	82.4594	55.6641	82.42	55.6641	82.4978	55.6641	82.4776	55.6641	82.5044
58.5938	82.0418	58.5938	82.0382	58.5938	82.0528	58.5938	82.0423	58.5938	82.071	58.5938	82.0538	58.5938	82.0958	58.5938	82.0728	58.5938	82.1265	58.5938	82.0989	58.5938	82.1622	58.5938	82.132	58.5938	82.2024	58.5938	82.1722	58.5938	82.2467	58.5938	82.2196	58.5938	82.2952	58.5938	82.2746	58.5938	82.3485	58.5938	82.3377	58.5938	82.4074	58.5938	82.4088	58.5938	82.4724	58.5938	82.4871	58.5938	82.5431	58.5938	82.5702	58.5938	82.6176	58.5938	82.6537	58.5938	82.6918	58.5938	82.7313	58.5938	82.7598	58.5938	82.7955	58.5938	82.8144	58.5938	82.8394	58.5938	82.8488	58.5938	82.8577
60.0586	82.1748	60.0586	82.1813	60.0586	82.1786	60.0586	82.198	60.0586	82.1925	60.0586	82.2244	60.0586	82.2158	60.0586	82.2598	60.0586	82.2476	60.0586	82.303	60.0586	82.2872	60.0586	82.3531	60.0586	82.3336	60.0586	82.4089	60.0586	82.3864	60.0586	82.4699	60.0586	82.4452	60.0586	82.5356	60.0586	82.5101	60.0586	82.6058	60.0586	82.5812	60.0586	82.6805	60.0586	82.658	60.0586	82.7589	60.0586	82.7395	60.0586	82.8391	60.0586	82.823	60.0586	82.9174	60.0586	82.9046	60.0586	82.9882	60.0586	82.9786	60.0586	83.045	60.0586	83.0385	60.0586	83.0815	60.0586	83.0781	60.0586	83.0931
62.9883	82.4224	62.9883	82.4303	62.9883	82.4252	62.9883	82.4484	62.9883	82.4386	62.9883	82.4761	62.9883	82.4619	62.9883	82.5119	62.9883	82.4939	62.9883	82.5542	62.9883	82.5334	62.9883	82.6015	62.9883	82.5788	62.9883	82.6521	62.9883	82.6286	62.9883	82.7049	62.9883	82.6816	62.9883	82.7591	62.9883	82.7366	62.9883	82.8141	62.9883	82.793	62.9883	82.8699	62.9883	82.8502	62.9883	82.926	62.9883	82.9077	62.9883	82.9815	62.9883	82.9644	62.9883	83.0341	62.9883	83.0186	62.9883	83.0807	62.9883	83.0675	62.9883	83.1172	62.9883	83.1075	62.9883	83.1398	62.9883	83.1346	62.9883	83.1459
64.4531	82.5251	64.4531	82.5312	64.4531	82.5303	64.4531	82.5481	64.4531	82.5467	64.4531	82.5749	64.4531	82.5734	64.4531	82.6101	64.4531	82.609	64.4531	82.6519	64.4531	82.6519	64.4531	82.6982	64.4531	82.7	64.4531	82.7472	64.4531	82.7515	64.4531	82.7974	64.4531	82.8045	64.4531	82.8477	64.4531	82.8577	64.4531	82.8975	64.4531	82.9101	64.4531	82.9469	64.4531	82.9612	64.4531	82.9956	64.4531	83.0106	64.4531	83.0433	64.4531	83.0576	64.4531	83.0888	64.4531	83.1012	64.4531	83.1296	64.4531	83.1393	64.4531	83.1628	64.4531	83.1693	64.4531	83.185	64.4531	83.1882	64.4531	83.1938
67.3828	82.8086	67.3828	82.8111	67.3828	82.8188	67.3828	82.8257	67.3828	82.8413	67.3828	82.8512	67.3828	82.8749	67.3828	82.8856	67.3828	82.9177	67.3828	82.9262	67.3828	82.9673	67.3828	82.9706	67.3828	83.0209	67.3828	83.016	67.3828	83.0757	67.3828	83.0604	67.3828	83.129	67.3828	83.1021	67.3828	83.1788	67.3828	83.1404	67.3828	83.2233	67.3828	83.1754	67.3828	83.2619	67.3828	83.2077	67.3828	83.2941	67.3828	83.2381	67.3828	83.3203	67.3828	83.2672	67.3828	83.3405	67.3828	83.2948	67.3828	83.3547	67.3828	83.3198	67.3828	83.3623	67.3828	83.3405	67.3828	83.3626	67.3828	83.3552
68.8477	82.9386	68.8477	82.9382	68.8477	82.9522	68.8477	82.9504	68.8477	82.9784	68.8477	82.9739	68.8477	83.016	68.8477	83.0065	68.8477	83.0626	68.8477	83.0455	68.8477	83.1157	68.8477	83.0881	68.8477	83.172	68.8477	83.1312	68.8477	83.2284	68.8477	83.1724	68.8477	83.2817	68.8477	83.2099	68.8477	83.3295	68.8477	83.2428	68.8477	83.37	68.8477	83.2714	68.8477	83.402	68.8477	83.2964	68.8477	83.4256	68.8477	83.3194	68.8477	83.4412	68.8477	83.3417	68.8477	83.4498	68.8477	83.364	68.8477	83.452	68.8477	83.3862	68.8477	83.4484	68.8477	83.4071	68.8477	83.4394	68.8477	83.4253
71.7773	83.1719	71.7773	83.1712	71.7773	83.1853	71.7773	83.1828	71.7773	83.2109	71.7773	83.2053	71.7773	83.2472	71.7773	83.2365	71.7773	83.2916	71.7773	83.2735	71.7773	83.3412	71.7773	83.3131	71.7773	83.3925	71.7773	83.352	71.7773	83.4419	71.7773	83.3872	71.7773	83.486	71.7773	83.4164	71.7773	83.522	71.7773	83.4384	71.7773	83.5479	71.7773	83.453	71.7773	83.563	71.7773	83.4612	71.7773	83.5677	71.7773	83.4651	71.7773	83.5638	71.7773	83.4672	71.7773	83.5534	71.7773	83.4698	71.7773	83.5392	71.7773	83.4747	71.7773	83.5234	71.7773	83.4828	71.7773	83.5079	71.7773	83.494
74.707	83.4373	74.707	83.441	74.707	83.4462	74.707	83.4566	74.707	83.4673	74.707	83.4824	74.707	83.4989	74.707	83.5158	74.707	83.5386	74.707	83.5536	74.707	83.5831	74.707	83.5919	74.707	83.6284	74.707	83.6272	74.707	83.6706	74.707	83.6559	74.707	83.706	74.707	83.6756	74.707	83.7314	74.707	83.6846	74.707	83.7448	74.707	83.6831	74.707	83.7456	74.707	83.6724	74.707	83.7346	74.707	83.6555	74.707	83.7142	74.707	83.6361	74.707	83.688	74.707	83.6179	74.707	83.66	74.707	83.6047	74.707	83.6343	74.707	83.5989	74.707	83.6142	74.707	83.6021
77.6367	83.6497	77.6367	83.6546	77.6367	83.6576	77.6367	83.6716	77.6367	83.6777	77.6367	83.6991	77.6367	83.7085	77.6367	83.7344	77.6367	83.7475	77.6367	83.7739	77.6367	83.7911	77.6367	83.8139	77.6367	83.8356	77.6367	83.8503	77.6367	83.8768	77.6367	83.8792	77.6367	83.9107	77.6367	83.8977	77.6367	83.934	77.6367	83.9039	77.6367	83.9443	77.6367	83.8974	77.6367	83.9405	77.6367	83.8797	77.6367	83.9235	77.6367	83.8536	77.6367	83.8956	77.6367	83.8234	77.6367	83.861	77.6367	83.7942	77.6367	83.8248	77.6367	83.7708	77.6367	83.7924	77.6367	83.7573	77.6367	83.7685	77.6367	83.7563
79.1016	83.7159	79.1016	83.7209	79.1016	83.7237	79.1016	83.7382	79.1016	83.7439	79.1016	83.7661	79.1016	83.7746	79.1016	83.8019	79.1016	83.8133	79.1016	83.8421	79.1016	83.8564	79.1016	83.8826	79.1016	83.8997	79.1016	83.9191	79.1016	83.9392	79.1016	83.9478	79.1016	83.9707	79.1016	83.9651	79.1016	83.9907	79.1016	83.9691	79.1016	83.9968	79.1016	83.959	79.1016	83.988	79.1016	83.9361	79.1016	83.9651	79.1016	83.9034	79.1016	83.9309	79.1016	83.8655	79.1016	83.8898	79.1016	83.8281	79.1016	83.8478	79.1016	83.7971	79.1016	83.8109	79.1016	83.7777	79.1016	83.7848	79.1016	83.7732
82.0312	83.9992	82.0312	84.0033	82.0312	84.006	82.0312	84.0177	82.0312	84.0228	82.0312	84.0405	82.0312	84.048	82.0312	84.069	82.0312	84.0788	82.0312	84.0994	82.0312	84.1115	82.0312	84.1276	82.0312	84.1419	82.0312	84.149	82.0312	84.1656	82.0312	84.1595	82.0312	84.1785	82.0312	84.1556	82.0312	84.177	82.0312	84.1351	82.0312	84.1587	82.0312	84.0978	82.0312	84.1228	82.0312	84.0453	82.0312	84.0708	82.0312	83.9819	82.0312	84.0066	82.0312	83.9139	82.0312	83.9362	82.0312	83.8492	82.0312	83.8676	82.0312	83.7962	82.0312	83.8094	82.0312	83.7625	82.0312	83.7693	82.0312	83.753
84.9609	84.1076	84.9609	84.1139	84.9609	84.1152	84.9609	84.1334	84.9609	84.1362	84.9609	84.164	84.9609	84.1687	84.9609	84.2024	84.9609	84.2097	84.9609	84.2445	84.9609	84.2553	84.9609	84.2854	84.9609	84.3005	84.9609	84.32	84.9609	84.3403	84.9609	84.3435	84.9609	84.3697	84.9609	84.3517	84.9609	84.3839	84.9609	84.3422	84.9609	84.3799	84.9609	84.3142	84.9609	84.3561	84.9609	84.2694	84.9609	84.3136	84.9609	84.2124	84.9609	84.2561	84.9609	84.1496	84.9609	84.1898	84.9609	84.0896	84.9609	84.1231	84.9609	84.0408	84.9609	84.0649	84.9609	84.0108	84.9609	84.0234	84.9609	84.0046
87.8906	84.3828	87.8906	84.3897	87.8906	84.3847	87.8906	84.4048	87.8906	84.3951	87.8906	84.4265	87.8906	84.4128	87.8906	84.4521	87.8906	84.4355	87.8906	84.4782	87.8906	84.46	87.8906	84.5007	87.8906	84.4825	87.8906	84.515	87.8906	84.4986	87.8906	84.5168	87.8906	84.5036	87.8906	84.5022	87.8906	84.4936	87.8906	84.4689	87.8906	84.4653	87.8906	84.4162	87.8906	84.4177	87.8906	84.3461	87.8906	84.352	87.8906	84.2635	87.8906	84.2723	87.8906	84.1757	87.8906	84.1858	87.8906	84.0923	87.8906	84.1018	87.8906	84.0236	87.8906	84.031	87.8906	83.9789	87.8906	83.9829	87.8906	83.9646
90.8203	84.5817	90.8203	84.5859	90.8203	84.5863	90.8203	84.5979	90.8203	84.599	90.8203	84.616	90.8203	84.6185	90.8203	84.637	90.8203	84.642	90.8203	84.6572	90.8203	84.6662	90.8203	84.6719	90.8203	84.6866	90.8203	84.6765	90.8203	84.6984	90.8203	84.6666	90.8203	84.6967	90.8203	84.6386	90.8203	84.6771	90.8203	84.5906	90.8203	84.6364	90.8203	84.5225	90.8203	84.5736	90.8203	84.4369	90.8203	84.4905	90.8203	84.3394	90.8203	84.3921	90.8203	84.2383	90.8203	84.2863	90.8203	84.1442	90.8203	84.1841	90.8203	84.0685	90.8203	84.0971	90.8203	84.0214	90.8203	84.0364	90.8203	84.01
95.2148	84.8588	95.2148	84.8925	95.2148	84.8347	95.2148	84.9342	95.2148	84.8204	95.2148	84.9812	95.2148	84.8148	95.2148	85.03	95.2148	84.8157	95.2148	85.0759	95.2148	84.8196	95.2148	85.1137	95.2148	84.8222	95.2148	85.138	95.2148	84.8187	95.2148	85.1432	95.2148	84.8042	95.2148	85.1249	95.2148	84.7747	95.2148	85.0796	95.2148	84.7275	95.2148	85.0065	95.2148	84.6624	95.2148	84.9076	95.2148	84.5819	95.2148	84.7883	95.2148	84.4922	95.2148	84.6575	95.2148	84.4021	95.2148	84.5267	95.2148	84.323	95.2148	84.4091	95.2148	84.2668	95.2148	84.317	95.2148	84.2438	95.2148	84.2603
98.1445	85.1137	98.1445	85.1345	98.1445	85.097	98.1445	85.1594	98.1445	85.0839	98.1445	85.1871	98.1445	85.0733	98.1445	85.2153	98.1445	85.0634	98.1445	85.2408	98.1445	85.0521	98.1445	85.2589	98.1445	85.037	98.1445	85.2645	98.1445	85.0152	98.1445	85.2518	98.1445	84.9838	98.1445	85.2159	98.1445	84.94	98.1445	85.153	98.1445	84.8815	98.1445	85.0623	98.1445	84.8071	98.1445	84.9463	98.1445	84.7178	98.1445	84.8117	98.1445	84.6174	98.1445	84.6691	98.1445	84.5134	98.1445	84.5321	98.1445	84.4165	98.1445	84.4153	98.1445	84.3393	98.1445	84.3318	98.1445	84.2942	98.1445	84.2905
101.074	85.3011	101.074	85.2907	101.074	85.317	101.074	85.2858	101.074	85.337	101.074	85.2852	101.074	85.3584	101.074	85.286	101.074	85.3777	101.074	85.2842	101.074	85.3905	101.074	85.2747	101.074	85.3923	101.074	85.2517	101.074	85.3782	101.074	85.2097	101.074	85.344	101.074	85.1441	101.074	85.2861	101.074	85.0521	101.074	85.2025	101.074	84.9343	101.074	85.0927	101.074	84.795	101.074	84.9589	101.074	84.6432	101.074	84.807	101.074	84.4919	101.074	84.6461	101.074	84.357	101.074	84.4895	101.074	84.2548	101.074	84.3525	101.074	84.1989	101.074	84.2509	101.074	84.1974
105.469	85.3675	105.469	85.3536	105.469	85.3901	105.469	85.3477	105.469	85.4207	105.469	85.3481	105.469	85.4574	105.469	85.3519	105.469	85.4964	105.469	85.355	105.469	85.5326	105.469	85.3531	105.469	85.5599	105.469	85.3408	105.469	85.5711	105.469	85.3132	105.469	85.5594	105.469	85.2657	105.469	85.519	105.469	85.1952	105.469	85.4461	105.469	85.1007	105.469	85.3399	105.469	84.9847	105.469	85.2035	105.469	84.8534	105.469	85.0447	105.469	84.7173	105.469	84.8756	105.469	84.5907	105.469	84.712	105.469	84.4898	105.469	84.5718	105.469	84.4301	105.469	84.4713	105.469	84.4226
108.398	85.5991	108.398	85.6055	108.398	85.5963	108.398	85.615	108.398	85.5968	108.398	85.6263	108.398	85.5992	108.398	85.6368	108.398	85.6013	108.398	85.6434	108.398	85.6	108.398	85.6419	108.398	85.591	108.398	85.6271	108.398	85.5696	108.398	85.5941	108.398	85.5306	108.398	85.538	108.398	85.4695	108.398	85.4552	108.398	85.3831	108.398	85.3446	108.398	85.2705	108.398	85.2084	108.398	85.1347	108.398	85.0528	108.398	84.9826	108.398	84.889	108.398	84.8259	108.398	84.7321	108.398	84.6801	108.398	84.5993	108.398	84.5621	108.398	84.5073	108.398	84.4879	108.398	84.4684
112.793	85.8318	112.793	85.8157	112.793	85.8532	112.793	85.8045	112.793	85.8794	112.793	85.797	112.793	85.9091	112.793	85.7913	112.793	85.9399	112.793	85.7846	112.793	85.9682	112.793	85.7732	112.793	85.9894	112.793	85.7532	112.793	85.998	112.793	85.7199	112.793	85.9881	112.793	85.6693	112.793	85.9541	112.793	85.5985	112.793	85.8915	112.793	85.5066	112.793	85.7984	112.793	85.3958	112.793	85.676	112.793	85.2725	112.793	85.5299	112.793	85.1469	112.793	85.3703	112.793	85.0327	112.793	85.2116	112.793	84.9457	112.793	85.0708	112.793	84.9001	112.793	84.9645	112.793	84.9056
117.188	85.8389	117.188	85.8397	117.188	85.844	117.188	85.8458	117.188	85.8547	117.188	85.8557	117.188	85.8698	117.188	85.8669	117.188	85.8871	117.188	85.8762	117.188	85.9035	117.188	85.8794	117.188	85.9151	117.188	85.872	117.188	85.9171	117.188	85.849	117.188	85.9048	117.188	85.8063	117.188	85.8737	117.188	85.7407	117.188	85.8203	117.188	85.6515	117.188	85.7428	117.188	85.5414	117.188	85.6424	117.188	85.4171	117.188	85.5232	117.188	85.2893	117.188	85.3935	117.188	85.1723	117.188	85.2648	117.188	85.0813	117.188	85.1512	117.188	85.0294	117.188	85.0672	117.188	85.0244
120.117	86.1729	120.117	86.1754	120.117	86.171	120.117	86.1782	120.117	86.1693	120.117	86.1802	120.117	86.1664	120.117	86.1791	120.117	86.1601	120.117	86.1716	120.117	86.1476	120.117	86.1534	120.117	86.1251	120.117	86.1192	120.117	86.0883	120.117	86.0635	120.117	86.033	120.117	85.9817	120.117	85.9555	120.117	85.8707	120.117	85.8533	120.117	85.7304	120.117	85.7261	120.117	85.5649	120.117	85.5766	120.117	85.3831	120.117	85.4111	120.117	85.1992	120.117	85.2398	120.117	85.0313	120.117	85.0766	120.117	84.8986	120.117	84.938	120.117	84.8175	120.117	84.8404	120.117	84.7978
124.512	86.3577	124.512	86.3733	124.512	86.3408	124.512	86.3862	124.512	86.3231	124.512	86.3951	124.512	86.3047	124.512	86.3976	124.512	86.2849	124.512	86.3907	124.512	86.2617	124.512	86.3709	124.512	86.2318	124.512	86.3335	124.512	86.1908	124.512	86.2738	124.512	86.1333	124.512	86.1873	124.512	86.0539	124.512	86.0708	124.512	85.9486	124.512	85.9237	124.512	85.8157	124.512	85.7491	124.512	85.6573	124.512	85.5551	124.512	85.4808	124.512	85.3551	124.512	85.2987	124.512	85.1671	124.512	85.1277	124.512	85.0115	124.512	84.9873	124.512	84.9072	124.512	84.8959	124.512	84.8673
128.906	86.7197	128.906	86.7394	128.906	86.6938	128.906	86.7519	128.906	86.6622	128.906	86.7554	128.906	86.6249	128.906	86.7478	128.906	86.5811	128.906	86.7264	128.906	86.5292	128.906	86.6877	128.906	86.4666	128.906	86.6279	128.906	86.39	128.906	86.5431	128.906	86.2953	128.906	86.4297	128.906	86.1787	128.906	86.2853	128.906	86.0374	128.906	86.1099	128.906	85.8713	128.906	85.9072	128.906	85.6842	128.906	85.6853	128.906	85.4847	128.906	85.4577	128.906	85.2865	128.906	85.2427	128.906	85.1077	128.906	85.061	128.906	84.9679	128.906	84.9326	128.906	84.8851	128.906	84.872
133.301	86.8538	133.301	86.8555	133.301	86.8501	133.301	86.8554	133.301	86.8433	133.301	86.8527	133.301	86.8315	133.301	86.8456	133.301	86.8118	133.301	86.8307	133.301	86.7811	133.301	86.8038	133.301	86.7353	133.301	86.7598	133.301	86.6704	133.301	86.6932	133.301	86.5822	133.301	86.5989	133.301	86.467	133.301	86.4733	133.301	86.3229	133.301	86.3149	133.301	86.1503	133.301	86.1264	133.301	85.954	133.301	85.915	133.301	85.7438	133.301	85.6939	133.301	85.5348	133.301	85.4812	133.301	85.3466	133.301	85.2984	133.301	85.2005	133.301	85.1668	133.301	85.1152	133.301	85.1031
139.16	86.6534	139.16	86.6418	139.16	86.6672	139.16	86.6329	139.16	86.6826	139.16	86.6263	139.16	86.698	139.16	86.6207	139.16	86.7114	139.16	86.6138	139.16	86.7195	139.16	86.6019	139.16	86.7183	139.16	86.5805	139.16	86.7027	139.16	86.5441	139.16	86.6673	139.16	86.4877	139.16	86.6072	139.16	86.4074	139.16	86.5187	139.16	86.3013	139.16	86.4008	139.16	86.1713	139.16	86.2563	139.16	86.0235	139.16	86.0925	139.16	85.8686	139.16	85.9217	139.16	85.7218	139.16	85.7599	139.16	85.6008	139.16	85.6251	139.16	85.5222	139.16	85.534	139.16	85.4984
143.555	86.5721	143.555	86.5536	143.555	86.5985	143.555	86.5435	143.555	86.6311	143.555	86.5418	143.555	86.6678	143.555	86.5466	143.555	86.7054	143.555	86.5543	143.555	86.74	143.555	86.5596	143.555	86.7663	143.555	86.5561	143.555	86.7786	143.555	86.5374	143.555	86.7708	143.555	86.4981	143.555	86.7377	143.555	86.4351	143.555	86.6757	143.555	86.3486	143.555	86.5842	143.555	86.2425	143.555	86.4659	143.555	86.1247	143.555	86.3278	143.555	86.006	143.555	86.1806	143.555	85.8997	143.555	86.0379	143.555	85.819	143.555	85.9147	143.555	85.7754	143.555	85.8243	143.555	85.7765
147.949	87.1774	147.949	87.1745	147.949	87.1679	147.949	87.158	147.949	87.1478	147.949	87.1277	147.949	87.1192	147.949	87.0836	147.949	87.0837	147.949	87.0256	147.949	87.0416	147.949	86.9526	147.949	86.9909	147.949	86.8627	147.949	86.9281	147.949	86.7531	147.949	86.8479	147.949	86.621	147.949	86.7448	147.949	86.4653	147.949	86.6146	147.949	86.2875	147.949	86.4556	147.949	86.0928	147.949	86.2704	147.949	85.8913	147.949	86.0664	147.949	85.6968	147.949	85.8566	147.949	85.5261	147.949	85.6581	147.949	85.3963	147.949	85.4902	147.949	85.3221	147.949	85.3708	147.949	85.3128
153.809	87.0269	153.809	87.031	153.809	87.0163	153.809	87.0291	153.809	86.9987	153.809	87.0209	153.809	86.9736	153.809	87.0052	153.809	86.9404	153.809	86.9793	153.809	86.8983	153.809	86.9393	153.809	86.8457	153.809	86.88	153.809	86.7797	153.809	86.7955	153.809	86.6964	153.809	86.6809	153.809	86.5916	153.809	86.5336	153.809	86.462	153.809	86.3548	153.809	86.3065	153.809	86.1507	153.809	86.1274	153.809	85.9325	153.809	85.9319	153.809	85.7162	153.809	85.7318	153.809	85.5209	153.809	85.5439	153.809	85.3659	153.809	85.3873	153.809	85.2683	153.809	85.2809	153.809	85.2391
159.668	87.2418	159.668	87.2396	159.668	87.2377	159.668	87.2303	159.668	87.2272	159.668	87.2124	159.668	87.2098	159.668	87.1836	159.668	87.1842	159.668	87.1409	159.668	87.1485	159.668	87.0807	159.668	87.0999	159.668	86.9994	159.668	87.0349	159.668	86.8938	159.668	86.9497	159.668	86.7621	159.668	86.8408	159.668	86.6047	159.668	86.7059	159.668	86.4253	159.668	86.5455	159.668	86.2312	159.668	86.3634	159.668	86.0332	159.668	86.1677	159.668	85.8452	159.668	85.9708	159.668	85.6824	159.668	85.788	159.668	85.5598	159.668	85.6359	159.668	85.4893	159.668	85.5291	159.668	85.4786
165.527	87.1827	165.527	87.181	165.527	87.1795	165.527	87.1747	165.527	87.1711	165.527	87.1635	165.527	87.1569	165.527	87.146	165.527	87.1366	165.527	87.1191	165.527	87.1089	165.527	87.0781	165.527	87.0715	165.527	87.0172	165.527	87.021	165.527	86.9306	165.527	86.9527	165.527	86.814	165.527	86.8622	165.527	86.6664	165.527	86.7458	165.527	86.4911	165.527	86.6027	165.527	86.2969	165.527	86.4356	165.527	86.0973	165.527	86.2523	165.527	85.9092	165.527	86.0645	165.527	85.7498	165.527	85.8875	165.527	85.6344	165.527	85.7372	165.527	85.5733	165.527	85.6283	165.527	85.5716
171.387	87.1018	171.387	87.0778	171.387	87.1186	171.387	87.0476	171.387	87.1273	171.387	87.0127	171.387	87.1279	171.387	86.9734	171.387	87.1205	171.387	86.9281	171.387	87.1046	171.387	86.8734	171.387	87.0783	171.387	86.8039	171.387	87.0378	171.387	86.7139	171.387	86.9778	171.387	86.5994	171.387	86.8924	171.387	86.4591	171.387	86.7771	171.387	86.2964	171.387	86.6306	171.387	86.1197	171.387	86.4561	171.387	85.9415	171.387	86.2623	171.387	85.777	171.387	86.0627	171.387	85.6415	171.387	85.8736	171.387	85.5483	171.387	85.7116	171.387	85.5065	171.387	85.5907	171.387	85.5207
177.246	87.2176	177.246	87.2319	177.246	87.1896	177.246	87.232	177.246	87.1495	177.246	87.218	177.246	87.0999	177.246	87.1904	177.246	87.0441	177.246	87.1486	177.246	86.9849	177.246	87.0904	177.246	86.9241	177.246	87.0122	177.246	86.8611	177.246	86.909	177.246	86.7922	177.246	86.777	177.246	86.7118	177.246	86.6156	177.246	86.6137	177.246	86.4292	177.246	86.4935	177.246	86.2284	177.246	86.351	177.246	86.0289	177.246	86.1915	177.246	85.8489	177.246	86.0257	177.246	85.7048	177.246	85.8677	177.246	85.6079	177.246	85.7318	177.246	85.5638	177.246	85.6304	177.246	85.5724
183.105	87.096	183.105	87.1208	183.105	87.0637	183.105	87.1378	183.105	87.024	183.105	87.1469	183.105	86.9775	183.105	87.1475	183.105	86.9239	183.105	87.1374	183.105	86.862	183.105	87.1126	183.105	86.7897	183.105	87.0671	183.105	86.7039	183.105	86.9939	183.105	86.6016	183.105	86.886	183.105	86.4802	183.105	86.7391	183.105	86.3386	183.105	86.5533	183.105	86.1785	183.105	86.335	183.105	86.0047	183.105	86.0972	183.105	85.8259	183.105	85.859	183.105	85.6538	183.105	85.6424	183.105	85.5019	183.105	85.4683	183.105	85.3841	183.105	85.3519	183.105	85.3135	183.105	85.3006
188.965	87.1357	188.965	87.1534	188.965	87.1059	188.965	87.1586	188.965	87.0655	188.965	87.1519	188.965	87.0171	188.965	87.1337	188.965	86.9626	188.965	87.1031	188.965	86.9025	188.965	87.057	188.965	86.8338	188.965	86.9901	188.965	86.7504	188.965	86.8958	188.965	86.644	188.965	86.7684	188.965	86.5066	188.965	86.605	188.965	86.3335	188.965	86.4078	188.965	86.1259	188.965	86.1843	188.965	85.8932	188.965	85.9471	188.965	85.6528	188.965	85.7113	188.965	85.4277	188.965	85.4927	188.965	85.2423	188.965	85.306	188.965	85.1167	188.965	85.1644	188.965	85.062	188.965	85.0798
196.289	87.2664	196.289	87.2289	196.289	87.2789	196.289	87.1709	196.289	87.2646	196.289	87.0987	196.289	87.2253	196.289	87.0188	196.289	87.1654	196.289	86.9359	196.289	87.0907	196.289	86.8506	196.289	87.0067	196.289	86.7592	196.289	86.9161	196.289	86.6548	196.289	86.8184	196.289	86.5304	196.289	86.7107	196.289	86.3824	196.289	86.5901	196.289	86.2137	196.289	86.4559	196.289	86.0354	196.289	86.3111	196.289	85.8649	196.289	86.1616	196.289	85.7215	196.289	86.0152	196.289	85.6201	196.289	85.8794	196.289	85.5674	196.289	85.7609	196.289	85.5617	196.289	85.665	196.289	85.5966
203.613	87.091	203.613	87.0505	203.613	87.112	203.613	86.9943	203.613	87.1114	203.613	86.9276	203.613	87.0886	203.613	86.8561	203.613	87.0449	203.613	86.7846	203.613	86.9832	203.613	86.7151	203.613	86.9074	203.613	86.6454	203.613	86.8202	203.613	86.5687	203.613	86.7214	203.613	86.4761	203.613	86.6075	203.613	86.3596	203.613	86.4739	203.613	86.2163	203.613	86.3188	203.613	86.051	203.613	86.1468	203.613	85.8773	203.613	85.9694	203.613	85.714	203.613	85.802	203.613	85.5798	203.613	85.6586	203.613	85.4874	203.613	85.5483	203.613	85.4409	203.613	85.4744	203.613	85.4379
210.938	87.0934	210.938	87.0746	210.938	87.0944	210.938	87.0378	210.938	87.0788	210.938	86.9853	210.938	87.0473	210.938	86.9214	210.938	86.9993	210.938	86.8513	210.938	86.9332	210.938	86.7771	210.938	86.8469	210.938	86.6951	210.938	86.7389	210.938	86.5945	210.938	86.6083	210.938	86.461	210.938	86.4548	210.938	86.282	210.938	86.2793	210.938	86.0539	210.938	86.0838	210.938	85.786	210.938	85.8729	210.938	85.5018	210.938	85.6546	210.938	85.2341	210.938	85.4391	210.938	85.0166	210.938	85.2381	210.938	84.8743	210.938	85.0629	210.938	84.8165	210.938	84.9251	210.938	84.838
218.262	86.6314	218.262	86.62	218.262	86.6174	218.262	86.5845	218.262	86.5809	218.262	86.5302	218.262	86.5284	218.262	86.4651	218.262	86.4685	218.262	86.3993	218.262	86.4088	218.262	86.3424	218.262	86.3529	218.262	86.3005	218.262	86.2984	218.262	86.2733	218.262	86.2369	218.262	86.2529	218.262	86.1575	218.262	86.2261	218.262	86.051	218.262	86.1802	218.262	85.9161	218.262	86.107	218.262	85.7619	218.262	86.0063	218.262	85.6073	218.262	85.8848	218.262	85.4752	218.262	85.7537	218.262	85.385	218.262	85.6249	218.262	85.3468	218.262	85.5095	218.262	85.3602	218.262	85.4178
225.586	86.1969	225.586	86.1726	225.586	86.2005	225.586	86.1334	225.586	86.1815	225.586	86.0877	225.586	86.1418	225.586	86.045	225.586	86.0869	225.586	86.0142	225.586	86.0249	225.586	86.0016	225.586	85.9645	225.586	86.0075	225.586	85.9122	225.586	86.026	225.586	85.8702	225.586	86.0459	225.586	85.8354	225.586	86.0546	225.586	85.8005	225.586	86.0419	225.586	85.7587	225.586	86.003	225.586	85.7072	225.586	85.9391	225.586	85.6496	225.586	85.8574	225.586	85.5949	225.586	85.7687	225.586	85.5534	225.586	85.6844	225.586	85.5325	225.586	85.614	225.586	85.5358	225.586	85.5635
232.91	86.9053	232.91	86.8427	232.91	86.895	232.91	86.7124	232.91	86.8133	232.91	86.5264	232.91	86.6681	232.91	86.3032	232.91	86.4727	232.91	86.0669	232.91	86.2447	232.91	85.8448	232.91	86.0048	232.91	85.6617	232.91	85.7751	232.91	85.5352	232.91	85.578	232.91	85.4715	232.91	85.4334	232.91	85.466	232.91	85.3546	232.91	85.5069	232.91	85.3444	232.91	85.5796	232.91	85.3947	232.91	85.6695	232.91	85.4893	232.91	85.7629	232.91	85.6078	232.91	85.8474	232.91	85.7291	232.91	85.9119	232.91	85.8344	232.91	85.9477	232.91	85.9099	232.91	85.9481
241.699	87.2184	241.699	87.1313	241.699	87.2452	241.699	86.9826	241.699	87.2159	241.699	86.7753	241.699	87.1362	241.699	86.5187	241.699	87.0128	241.699	86.2294	241.699	86.8523	241.699	85.93	241.699	86.6607	241.699	85.6448	241.699	86.4439	241.699	85.3949	241.699	86.2083	241.699	85.194	241.699	85.9623	241.699	85.0499	241.699	85.7186	241.699	84.9666	241.699	85.4947	241.699	84.9457	241.699	85.3117	241.699	84.9835	241.699	85.1896	241.699	85.0666	241.699	85.1402	241.699	85.1709	241.699	85.1585	241.699	85.2663	241.699	85.2206	241.699	85.3254	241.699	85.2904	241.699	85.3326
250.488	87.7202	250.488	87.6916	250.488	87.681	250.488	87.5942	250.488	87.5771	250.488	87.4293	250.488	87.415	250.488	87.2002	250.488	87.2053	250.488	86.913	250.488	86.962	250.488	86.5764	250.488	86.7009	250.488	86.2016	250.488	86.4364	250.488	85.8017	250.488	86.1781	250.488	85.3926	250.488	85.93	250.488	84.9968	250.488	85.6925	250.488	84.6458	250.488	85.4667	250.488	84.3775	250.488	85.2583	250.488	84.2227	250.488	85.0769	250.488	84.1887	250.488	84.9318	250.488	84.2518	250.488	84.8252	250.488	84.3678	250.488	84.7474	250.488	84.4924	250.488	84.6787	250.488	84.5979
259.277	87.5315	259.277	87.4985	259.277	87.5005	259.277	87.404	259.277	87.4055	259.277	87.2529	259.277	87.2495	259.277	87.0527	259.277	87.039	259.277	86.8141	259.277	86.7841	259.277	86.5498	259.277	86.4987	259.277	86.2716	259.277	86.1995	259.277	85.9877	259.277	85.9037	259.277	85.7008	259.277	85.6261	259.277	85.4138	259.277	85.3771	259.277	85.137	259.277	85.1628	259.277	84.8941	259.277	84.988	259.277	84.7164	259.277	84.8587	259.277	84.6268	259.277	84.7808	259.277	84.6226	259.277	84.7535	259.277	84.6731	259.277	84.7622	259.277	84.7352	259.277	84.7787	259.277	84.7743
268.066	87.4832	268.066	87.416	268.066	87.4799	268.066	87.2804	268.066	87.4057	268.066	87.0808	268.066	87.2623	268.066	86.8243	268.066	87.0531	268.066	86.5218	268.066	86.7834	268.066	86.1898	268.066	86.4614	268.066	85.8491	268.066	86.1003	268.066	85.5206	268.066	85.7192	268.066	85.2183	268.066	85.343	268.066	84.9469	268.066	84.9995	268.066	84.7078	268.066	84.714	268.066	84.5089	268.066	84.5034	268.066	84.3665	268.066	84.3727	268.066	84.2961	268.066	84.315	268.066	84.2948	268.066	84.314	268.066	84.3361	268.066	84.3462	268.066	84.3813	268.066	84.3836	268.066	84.3999
276.855	87.4492	276.855	87.4293	276.855	87.4426	276.855	87.3737	276.855	87.4074	276.855	87.2647	276.855	87.3328	276.855	87.0818	276.855	87.2021	276.855	86.8108	276.855	86.9972	276.855	86.4523	276.855	86.7038	276.855	86.026	276.855	86.3177	276.855	85.571	276.855	85.8511	276.855	85.1388	276.855	85.3375	276.855	84.7787	276.855	84.8301	276.855	84.5189	276.855	84.3892	276.855	84.3563	276.855	84.061	276.855	84.2644	276.855	83.8603	276.855	84.2114	276.855	83.7713	276.855	84.1714	276.855	83.7646	276.855	84.126	276.855	83.8123	276.855	84.0634	276.855	83.8918	276.855	83.9818
287.109	87.3934	287.109	87.3948	287.109	87.3392	287.109	87.3433	287.109	87.2349	287.109	87.2401	287.109	87.0857	287.109	87.0858	287.109	86.9008	287.109	86.8769	287.109	86.6925	287.109	86.6059	287.109	86.4726	287.109	86.2653	287.109	86.2442	287.109	85.8584	287.109	85.9976	287.109	85.4123	287.109	85.7156	287.109	84.9841	287.109	85.3907	287.109	84.6478	287.109	85.044	287.109	84.4581	287.109	84.7292	287.109	84.4181	287.109	84.5124	287.109	84.4827	287.109	84.4324	287.109	84.5912	287.109	84.4746	287.109	84.6934	287.109	84.5825	287.109	84.7547	287.109	84.6914	287.109	84.7552
297.363	87.681	297.363	87.6654	297.363	87.6323	297.363	87.597	297.363	87.5116	297.363	87.4879	297.363	87.3156	297.363	87.344	297.363	87.0425	297.363	87.1599	297.363	86.6932	297.363	86.9185	297.363	86.276	297.363	86.5964	297.363	85.8138	297.363	86.1735	297.363	85.3436	297.363	85.6473	297.363	84.9053	297.363	85.05	297.363	84.5264	297.363	84.4651	297.363	84.2195	297.363	84.0193	297.363	83.995	297.363	83.8237	297.363	83.873	297.363	83.887	297.363	83.8733	297.363	84.1034	297.363	83.9898	297.363	84.3318	297.363	84.177	297.363	84.4701	297.363	84.363	297.363	84.4769
307.617	87.2554	307.617	87.1462	307.617	87.2944	307.617	86.9701	307.617	87.2672	307.617	86.7414	307.617	87.1805	307.617	86.4837	307.617	87.0389	307.617	86.2207	307.617	86.8412	307.617	85.9643	307.617	86.5818	307.617	85.7068	307.617	86.2559	307.617	85.4273	307.617	85.8692	307.617	85.1091	307.617	85.4476	307.617	84.7557	307.617	85.0375	307.617	84.3984	307.617	84.6935	307.617	84.0908	307.617	84.4549	307.617	83.8917	307.617	84.3295	307.617	83.8373	307.617	84.296	307.617	83.9171	307.617	84.3191	307.617	84.0735	307.617	84.3595	307.617	84.2329	307.617	84.3777	307.617	84.3404
319.336	87.3957	319.336	87.3345	319.336	87.383	319.336	87.2023	319.336	87.2945	319.336	87.0005	319.336	87.1319	319.336	86.7298	319.336	86.9013	319.336	86.3938	319.336	86.6108	319.336	86.0018	319.336	86.2665	319.336	85.5657	319.336	85.8701	319.336	85.0932	319.336	85.4204	319.336	84.5882	319.336	84.9217	319.336	84.0674	319.336	84.3968	319.336	83.5855	319.336	83.9006	319.336	83.2371	319.336	83.5166	319.336	83.105	319.336	83.3232	319.336	83.1892	319.336	83.3394	319.336	83.403	319.336	83.5024	319.336	83.6386	319.336	83.7051	319.336	83.8172	319.336	83.8533	319.336	83.8946
329.59	86.9817	329.59	86.9454	329.59	86.9808	329.59	86.8749	329.59	86.9321	329.59	86.7624	329.59	86.8228	329.59	86.591	329.59	86.6434	329.59	86.3421	329.59	86.3907	329.59	86.0068	329.59	86.0684	329.59	85.5943	329.59	85.6845	329.59	85.1333	329.59	85.2471	329.59	84.662	329.59	84.7628	329.59	84.2149	329.59	84.2439	329.59	83.822	329.59	83.7234	329.59	83.5215	329.59	83.2675	329.59	83.3598	329.59	82.9631	329.59	83.3582	329.59	82.8716	329.59	83.475	329.59	82.9824	329.59	83.6166	329.59	83.2145	329.59	83.6883	329.59	83.4621	329.59	83.6367
341.309	87.0325	341.309	86.9927	341.309	86.9718	341.309	86.8576	341.309	86.8177	341.309	86.644	341.309	86.5849	341.309	86.3743	341.309	86.2897	341.309	86.0625	341.309	85.9428	341.309	85.7021	341.309	85.5464	341.309	85.2688	341.309	85.1002	341.309	84.742	341.309	84.6135	341.309	84.1362	341.309	84.1162	341.309	83.5227	341.309	83.6599	341.309	83.0202	341.309	83.3081	341.309	82.7433	341.309	83.1159	341.309	82.7369	341.309	83.1033	341.309	82.9528	341.309	83.2408	341.309	83.2823	341.309	83.462	341.309	83.607	341.309	83.6913	341.309	83.8351	341.309	83.8617	341.309	83.9204
353.027	87.0974	353.027	87.0451	353.027	87.1304	353.027	86.9728	353.027	87.1263	353.027	86.8615	353.027	87.0575	353.027	86.6845	353.027	86.9	353.027	86.4211	353.027	86.6397	353.027	86.0634	353.027	86.2699	353.027	85.6113	353.027	85.7824	353.027	85.0639	353.027	85.1618	353.027	84.4237	353.027	84.395	353.027	83.7212	353.027	83.4985	353.027	83.0467	353.027	82.5616	353.027	82.5488	353.027	81.7863	353.027	82.3595	353.027	81.4346	353.027	82.4856	353.027	81.6116	353.027	82.7982	353.027	82.1339	353.027	83.1276	353.027	82.7119	353.027	83.3415	353.027	83.1478	353.027	83.3603
366.211	87.8185	366.211	87.6769	366.211	87.8476	366.211	87.433	366.211	87.7682	366.211	87.1064	366.211	87.5964	366.211	86.7169	366.211	87.3539	366.211	86.276	366.211	87.0596	366.211	85.7847	366.211	86.7201	366.211	85.2371	366.211	86.3242	366.211	84.6253	366.211	85.8436	366.211	83.944	366.211	85.2448	366.211	83.2094	366.211	84.5085	366.211	82.4978	366.211	83.6534	366.211	81.9693	366.211	82.7719	366.211	81.7899	366.211	82.0603	366.211	81.9658	366.211	81.7516	366.211	82.3224	366.211	81.8993	366.211	82.6622	366.211	82.2934	366.211	82.8643	366.211	82.6683	366.211	82.8721
379.395	87.1155	379.395	87.1487	379.395	87.0542	379.395	87.1414	379.395	86.9686	379.395	87.0726	379.395	86.8561	379.395	86.9178	379.395	86.7089	379.395	86.6567	379.395	86.5153	379.395	86.2774	379.395	86.263	379.395	85.7761	379.395	85.9425	379.395	85.1562	379.395	85.5478	379.395	84.4319	379.395	85.0791	379.395	83.6394	379.395	84.5531	379.395	82.8597	379.395	84.0165	379.395	82.2381	379.395	83.5481	379.395	81.9542	379.395	83.2363	379.395	82.098	379.395	83.1407	379.395	82.5622	379.395	83.2538	379.395	83.1138	379.395	83.4866	379.395	83.544	379.395	83.6952	379.395	83.7408
392.578	86.8007	392.578	86.7518	392.578	86.7798	392.578	86.6466	392.578	86.6815	392.578	86.498	392.578	86.5056	392.578	86.3125	392.578	86.2567	392.578	86.0859	392.578	85.9399	392.578	85.802	392.578	85.5592	392.578	85.4333	392.578	85.1175	392.578	84.9485	392.578	84.6143	392.578	84.3318	392.578	84.0464	392.578	83.6124	392.578	83.4217	392.578	82.8866	392.578	82.7973	392.578	82.3104	392.578	82.3122	392.578	82.0363	392.578	82.1369	392.578	82.1174	392.578	82.3143	392.578	82.4586	392.578	82.6955	392.578	82.8788	392.578	83.077	392.578	83.2148	392.578	83.3229	392.578	83.3731
405.762	86.8233	405.762	86.7952	405.762	86.7884	405.762	86.6874	405.762	86.6971	405.762	86.4856	405.762	86.5417	405.762	86.1896	405.762	86.3052	405.762	85.8149	405.762	85.9678	405.762	85.38	405.762	85.5094	405.762	84.8889	405.762	84.9107	405.762	84.3255	405.762	84.16	405.762	83.6763	405.762	83.2686	405.762	82.9772	405.762	82.2983	405.762	82.347	405.762	81.4048	405.762	81.9485	405.762	80.8505	405.762	81.8699	405.762	80.8546	405.762	82.0614	405.762	81.3504	405.762	82.4047	405.762	82.0416	405.762	82.7812	405.762	82.66	405.762	83.0787	405.762	83.0609	405.762	83.195
420.41	87.0108	420.41	86.9217	420.41	87.0235	420.41	86.7745	420.41	86.9588	420.41	86.5846	420.41	86.8352	420.41	86.3476	420.41	86.6777	420.41	86.0449	420.41	86.5013	420.41	85.664	420.41	86.2998	420.41	85.2066	420.41	86.0386	420.41	84.666	420.41	85.6533	420.41	83.998	420.41	85.0659	420.41	83.1379	420.41	84.2196	420.41	82.0949	420.41	83.1279	420.41	81.1058	420.41	81.9332	420.41	80.6531	420.41	80.9416	420.41	80.9757	420.41	80.5059	420.41	81.6959	420.41	80.7241	420.41	82.3208	420.41	81.3447	420.41	82.603	420.41	82.0176	420.41	82.4851
435.059	86.5568	435.059	86.53	435.059	86.4849	435.059	86.4213	435.059	86.3165	435.059	86.2545	435.059	86.0745	435.059	86.041	435.059	85.791	435.059	85.7613	435.059	85.4869	435.059	85.365	435.059	85.1577	435.059	84.7928	435.059	84.7783	435.059	84.0081	435.059	84.3202	435.059	83.0233	435.059	83.76	435.059	81.929	435.059	83.0832	435.059	80.9457	435.059	82.3221	435.059	80.4308	435.059	81.6465	435.059	80.6366	435.059	81.3925	435.059	81.392	435.059	81.772	435.059	82.2927	435.059	82.5404	435.059	83.0555	435.059	83.2674	435.059	83.5687	435.059	83.704	435.059	83.7957
451.172	86.9297	451.172	86.8561	451.172	86.9349	451.172	86.708	451.172	86.8653	451.172	86.4812	451.172	86.7072	451.172	86.1937	451.172	86.4527	451.172	85.8846	451.172	86.1061	451.172	85.5769	451.172	85.6765	451.172	85.2303	451.172	85.1624	451.172	84.7326	451.172	84.5385	451.172	83.9412	451.172	83.7533	451.172	82.7436	451.172	82.7539	451.172	81.1399	451.172	81.5496	451.172	79.4431	451.172	80.3227	451.172	78.5026	451.172	79.49	451.172	78.9077	451.172	79.4093	451.172	79.9799	451.172	79.9352	451.172	80.9211	451.172	80.6413	451.172	81.4443	451.172	81.2235	451.172	81.5242
465.82	86.2235	465.82	86.2683	465.82	86.2031	465.82	86.2938	465.82	86.203	465.82	86.2326	465.82	86.1828	465.82	86.0397	465.82	86.0949	465.82	85.7227	465.82	85.9078	465.82	85.3284	465.82	85.6089	465.82	84.8929	465.82	85.193	465.82	84.3958	465.82	84.6467	465.82	83.7629	465.82	83.9361	465.82	82.9137	465.82	83.0082	465.82	81.8321	465.82	81.8304	465.82	80.6674	465.82	80.5072	465.82	79.8386	465.82	79.4536	465.82	79.8124	465.82	79.2446	465.82	80.4818	465.82	79.8792	465.82	81.2822	465.82	80.787	465.82	81.8003	465.82	81.5209	465.82	81.8831
483.398	86.0034	483.398	85.8226	483.398	86.0506	483.398	85.6061	483.398	85.9381	483.398	85.4553	483.398	85.7124	483.398	85.3822	483.398	85.4513	483.398	85.3003	483.398	85.2155	483.398	85.108	483.398	85.0142	483.398	84.7532	483.398	84.7923	483.398	84.2168	483.398	84.4446	483.398	83.4606	483.398	83.8508	483.398	82.4138	483.398	82.922	483.398	81.0495	483.398	81.6536	483.398	79.5747	483.398	80.2316	483.398	78.659	483.398	79.1968	483.398	78.956	483.398	79.1877	483.398	80.0603	483.398	80.0448	483.398	81.1657	483.398	81.0589	483.398	81.8732	483.398	81.7893	483.398	82.0791
499.512	86.4995	499.512	86.3985	499.512	86.4172	499.512	86.1218	499.512	86.2011	499.512	85.741	499.512	85.9266	499.512	85.3636	499.512	85.655	499.512	85.0646	499.512	85.4056	499.512	84.827	499.512	85.1549	499.512	84.557	499.512	84.8519	499.512	84.1467	499.512	84.4297	499.512	83.5157	499.512	83.8068	499.512	82.6224	499.512	82.8936	499.512	81.4825	499.512	81.6336	499.512	80.2459	499.512	80.1386	499.512	79.3474	499.512	78.9429	499.512	79.3718	499.512	78.835	499.512	80.2527	499.512	79.7334	499.512	81.2758	499.512	80.8432	499.512	81.9299	499.512	81.6754	499.512	82.06
517.09	85.6721	517.09	85.6232	517.09	85.6464	517.09	85.4934	517.09	85.5261	517.09	85.2698	517.09	85.2862	517.09	84.9663	517.09	84.9433	517.09	84.6349	517.09	84.5731	517.09	84.327	517.09	84.2581	517.09	84.0249	517.09	84.0119	517.09	83.6212	517.09	83.7683	517.09	82.9866	517.09	83.4256	517.09	82.0641	517.09	82.8755	517.09	80.9398	517.09	82.0274	517.09	79.8862	517.09	80.8922	517.09	79.3029	517.09	79.7698	517.09	79.4199	517.09	79.3166	517.09	80.0534	517.09	79.8326	517.09	80.8242	517.09	80.7467	517.09	81.4289	517.09	81.4413	517.09	81.6716
536.133	86.1532	536.133	85.9706	536.133	86.2152	536.133	85.6982	536.133	86.1138	536.133	85.3583	536.133	85.816	536.133	84.9775	536.133	85.3326	536.133	84.5857	536.133	84.7321	536.133	84.189	536.133	84.1173	536.133	83.7411	536.133	83.5538	536.133	83.152	536.133	82.9778	536.133	82.3139	536.133	82.1952	536.133	81.0927	536.133	81.001	536.133	79.3447	536.133	79.3235	536.133	77.2689	536.133	77.5025	536.133	76.4681	536.133	76.7687	536.133	78.089	536.133	77.9364	536.133	80.1105	536.133	79.7347	536.133	81.4477	536.133	81.1353	536.133	82.1048	536.133	81.9478	536.133	82.2498
555.176	85.862	555.176	85.9147	555.176	85.7129	555.176	85.8353	555.176	85.5301	555.176	85.6043	555.176	85.3675	555.176	85.2163	555.176	85.2157	555.176	84.7087	555.176	85.0218	555.176	84.1634	555.176	84.7664	555.176	83.6377	555.176	84.4761	555.176	83.0759	555.176	84.1319	555.176	82.3166	555.176	83.595	555.176	81.2031	555.176	82.6564	555.176	79.6928	555.176	81.1464	555.176	77.9119	555.176	79.0269	555.176	76.3036	555.176	76.5825	555.176	75.9816	555.176	74.9905	555.176	77.3613	555.176	75.6589	555.176	79.0235	555.176	77.518	555.176	79.9828	555.176	79.1307	555.176	80.0075
574.219	85.7718	574.219	85.7011	574.219	85.6512	574.219	85.4351	574.219	85.3848	574.219	85.0306	574.219	85.0469	574.219	84.6026	574.219	84.7137	574.219	84.2775	574.219	84.3967	574.219	84.1064	574.219	84.0239	574.219	83.9911	574.219	83.522	574.219	83.7168	574.219	82.8941	574.219	83.0574	574.219	82.1853	574.219	81.8281	574.219	81.3556	574.219	79.9003	574.219	80.2468	574.219	77.3217	574.219	78.7726	574.219	74.9001	574.219	77.2764	574.219	74.7302	574.219	76.7219	574.219	76.6872	574.219	77.5752	574.219	78.7407	574.219	79.0004	574.219	80.0952	574.219	80.1389	574.219	80.561
594.727	85.7351	594.727	85.4746	594.727	85.8488	594.727	85.1872	594.727	85.704	594.727	84.9006	594.727	85.291	594.727	84.5557	594.727	84.721	594.727	84.1087	594.727	84.1687	594.727	83.5942	594.727	83.748	594.727	83.0928	594.727	83.4266	594.727	82.6318	594.727	83.0968	594.727	82.0891	594.727	82.6522	594.727	81.2286	594.727	81.9035	594.727	79.8525	594.727	80.5052	594.727	77.9965	594.727	78.1068	594.727	76.4014	594.727	75.1572	594.727	76.5419	594.727	74.6894	594.727	78.0132	594.727	76.7405	594.727	79.3048	594.727	78.4704	594.727	79.9476	594.727	79.496	594.727	79.9827
615.234	85.0798	615.234	85.0098	615.234	85.0633	615.234	84.8126	615.234	84.9879	615.234	84.4875	615.234	84.8468	615.234	84.1011	615.234	84.6202	615.234	83.7407	615.234	84.319	615.234	83.4246	615.234	84.014	615.234	83.0869	615.234	83.759	615.234	82.6311	615.234	83.4505	615.234	81.9313	615.234	82.8495	615.234	80.8131	615.234	81.766	615.234	79.1137	615.234	80.1777	615.234	76.8684	615.234	78.1526	615.234	75.0463	615.234	75.8071	615.234	75.4875	615.234	74.4126	615.234	77.2485	615.234	75.8073	615.234	78.7069	615.234	77.896	615.234	79.5291	615.234	79.2137	615.234	79.7153
637.207	85.383	637.207	85.3178	637.207	85.2365	637.207	85.0308	637.207	84.9687	637.207	84.6212	637.207	84.6433	637.207	84.2328	637.207	84.2657	637.207	83.9799	637.207	83.87	637.207	83.8734	637.207	83.5577	637.207	83.7843	637.207	83.3844	637.207	83.5631	637.207	83.2559	637.207	83.1033	637.207	82.9696	637.207	82.19	637.207	82.2995	637.207	80.4257	637.207	81.0308	637.207	77.455	637.207	79.0031	637.207	73.9013	637.207	76.4951	637.207	73.5913	637.207	75.5923	637.207	76.2575	637.207	77.5499	637.207	78.5622	637.207	79.618	637.207	80.0183	637.207	80.6488	637.207	80.7176
659.18	85.9562	659.18	85.8984	659.18	85.8481	659.18	85.6434	659.18	85.5615	659.18	85.1368	659.18	85.1497	659.18	84.4324	659.18	84.7687	659.18	83.7649	659.18	84.5067	659.18	83.3962	659.18	84.2975	659.18	83.3165	659.18	84.1076	659.18	83.2472	659.18	83.9804	659.18	82.9176	659.18	83.7691	659.18	82.1143	659.18	83.068	659.18	80.5222	659.18	81.447	659.18	77.7723	659.18	78.5533	659.18	74.7007	659.18	74.596	659.18	75.5912	659.18	74.1768	659.18	78.5723	659.18	77.5207	659.18	80.7266	659.18	79.9654	659.18	81.8711	659.18	81.4026	659.18	82.0616
682.617	86.867	682.617	86.5959	682.617	86.8969	682.617	86.2171	682.617	86.619	682.617	85.8158	682.617	86.0448	682.617	85.3329	682.617	85.2768	682.617	84.7461	682.617	84.566	682.617	84.3514	682.617	84.2143	682.617	84.4236	682.617	84.2281	682.617	84.6043	682.617	84.3073	682.617	84.3248	682.617	84.1653	682.617	83.2811	682.617	83.5567	682.617	81.2885	682.617	82.1836	682.617	77.8549	682.617	79.7404	682.617	72.6938	682.617	76.2051	682.617	74.4684	682.617	73.8872	682.617	78.724	682.617	76.3328	682.617	80.7948	682.617	79.3896	682.617	81.6739	682.617	81.2059	682.617	81.8563
707.52	86.954	707.52	86.8165	707.52	86.8635	707.52	86.4251	707.52	86.5405	707.52	85.755	707.52	85.9967	707.52	84.8989	707.52	85.2471	707.52	84.0498	707.52	84.337	707.52	83.3833	707.52	83.5517	707.52	83.0844	707.52	83.3514	707.52	83.1898	707.52	83.6659	707.52	83.308	707.52	83.9118	707.52	82.889	707.52	83.6092	707.52	81.4747	707.52	82.4296	707.52	78.5872	707.52	79.9223	707.52	73.628	707.52	75.0951	707.52	71.9781	707.52	71.0473	707.52	77.2138	707.52	76.6518	707.52	80.4498	707.52	80.1077	707.52	81.9754	707.52	81.7609	707.52	82.3456
732.422	86.9735	732.422	86.9142	732.422	86.751	732.422	86.4194	732.422	86.3953	732.422	85.524	732.422	85.8326	732.422	84.3974	732.422	84.9029	732.422	83.2441	732.422	83.677	732.422	82.4922	732.422	82.6368	732.422	82.712	732.422	82.5204	732.422	83.5311	732.422	83.2593	732.422	84.0215	732.422	83.8516	732.422	83.6612	732.422	83.6595	732.422	82.0839	732.422	82.4906	732.422	78.5973	732.422	80.0427	732.422	71.3594	732.422	75.2128	732.422	70.7586	732.422	67.8499	732.422	77.8574	732.422	75.4012	732.422	81.3996	732.422	80.1336	732.422	83.0967	732.422	82.4764	732.422	83.4078
757.324	86.956	757.324	86.9098	757.324	86.788	757.324	86.6145	757.324	86.3811	757.324	85.9344	757.324	85.7051	757.324	84.6825	757.324	84.7417	757.324	82.8944	757.324	83.473	757.324	81.3992	757.324	82.0703	757.324	81.4495	757.324	81.4583	757.324	82.5587	757.324	82.4781	757.324	83.5566	757.324	83.966	757.324	83.8226	757.324	84.6009	757.324	82.8267	757.324	83.8182	757.324	79.7218	757.324	81.2328	757.324	71.9567	757.324	75.6845	757.324	67.9735	757.324	57.1911	757.324	77.5056	757.324	74.1045	757.324	81.3777	757.324	79.5939	757.324	83.1729	757.324	82.2629	757.324	83.4143
785.156	86.9213	785.156	87.0019	785.156	86.8885	785.156	86.8285	785.156	86.9493	785.156	86.2444	785.156	86.7312	785.156	85.256	785.156	85.831	785.156	83.6783	785.156	84.0916	785.156	80.7726	785.156	81.5084	785.156	75.8925	785.156	78.4464	785.156	77.4326	785.156	78.6092	785.156	82.01	785.156	82.1991	785.156	84.0298	785.156	84.6888	785.156	84.0563	785.156	85.3955	785.156	82.2318	785.156	84.2215	785.156	77.7026	785.156	80.5543	785.156	71.0368	785.156	71.2365	785.156	77.6551	785.156	74.1746	785.156	81.4341	785.156	80.8722	785.156	83.2082	785.156	83.4347	785.156	83.9758
811.523	86.1708	811.523	86.3411	811.523	85.8151	811.523	86.3138	811.523	85.5787	811.523	86.2698	811.523	85.6552	811.523	86.1339	811.523	85.8266	811.523	85.4835	811.523	85.597	811.523	83.8703	811.523	84.4729	811.523	81.0997	811.523	82.1465	811.523	77.9022	811.523	78.6241	811.523	78.0451	811.523	76.0621	811.523	81.2031	811.523	78.4048	811.523	83.1496	811.523	81.0409	811.523	83.0152	811.523	81.9278	811.523	80.9991	811.523	81.031	811.523	77.5643	811.523	78.2293	811.523	73.9027	811.523	74.1101	811.523	75.4898	811.523	74.6143	811.523	78.1797	811.523	77.5378	811.523	78.7588
840.82	84.5098	840.82	84.5895	840.82	84.6804	840.82	84.8647	840.82	84.8713	840.82	84.8974	840.82	84.9512	840.82	84.4171	840.82	84.8657	840.82	83.6066	840.82	84.5156	840.82	82.6787	840.82	83.7608	840.82	81.0816	840.82	82.3841	840.82	78.0345	840.82	80.34	840.82	75.9464	840.82	79.141	840.82	78.3591	840.82	80.2659	840.82	80.4216	840.82	81.6506	840.82	80.9415	840.82	82.2331	840.82	79.5235	840.82	81.7799	840.82	74.8486	840.82	79.5164	840.82	59.1685	840.82	73.6776	840.82	68.411	840.82	55.9983	840.82	71.9912	840.82	69.5931	840.82	72.0491
870.117	85.0104	870.117	85.0496	870.117	84.8613	870.117	84.9138	870.117	84.6119	870.117	84.6165	870.117	84.3938	870.117	84.4156	870.117	84.3167	870.117	84.312	870.117	83.9957	870.117	83.6247	870.117	83.0606	870.117	81.6684	870.117	81.6587	870.117	78.5536	870.117	79.5575	870.117	76.3951	870.117	77.1287	870.117	77.742	870.117	78.0672	870.117	79.6641	870.117	79.9339	870.117	80.1881	870.117	80.5401	870.117	79.0043	870.117	79.8721	870.117	75.984	870.117	77.9049	870.117	70.2978	870.117	74.8401	870.117	63.4613	870.117	69.7248	870.117	71.9757	870.117	69.2532	870.117	73.2502
900.879	85.459	900.879	85.1631	900.879	85.6065	900.879	84.7887	900.879	85.6807	900.879	84.4844	900.879	85.5517	900.879	84.1313	900.879	85.3341	900.879	83.7253	900.879	85.353	900.879	83.3534	900.879	85.182	900.879	82.8348	900.879	84.3495	900.879	81.7929	900.879	83.1238	900.879	79.8426	900.879	81.4827	900.879	77.8471	900.879	79.9726	900.879	78.569	900.879	80.5913	900.879	79.808	900.879	81.6921	900.879	79.1534	900.879	81.5576	900.879	76.7305	900.879	79.4005	900.879	72.3022	900.879	74.6117	900.879	67.1473	900.879	69.9144	900.879	71.8141	900.879	71.0177	900.879	72.3501
933.105	85.5972	933.105	85.8309	933.105	85.2533	933.105	85.7824	933.105	84.8454	933.105	85.3299	933.105	84.386	933.105	84.6695	933.105	83.8343	933.105	84.2869	933.105	83.1992	933.105	84.0701	933.105	82.7972	933.105	83.1639	933.105	82.4454	933.105	81.5099	933.105	81.6736	933.105	79.8136	933.105	80.8165	933.105	78.4808	933.105	79.858	933.105	78.5678	933.105	78.9901	933.105	78.9911	933.105	79.6414	933.105	78.2956	933.105	79.8096	933.105	75.4945	933.105	78.174	933.105	71.3185	933.105	76.4425	933.105	72.9701	933.105	76.441	933.105	74.9264	933.105	76.4899	933.105	75.911
965.332	86.5039	965.332	86.6423	965.332	86.2283	965.332	86.3671	965.332	86.0079	965.332	85.5893	965.332	85.7043	965.332	84.6429	965.332	85.0591	965.332	83.8156	965.332	84.2327	965.332	83.006	965.332	83.2858	965.332	82.1645	965.332	82.2707	965.332	81.0307	965.332	81.3118	965.332	79.7215	965.332	80.2758	965.332	79.3067	965.332	79.9808	965.332	79.291	965.332	79.5072	965.332	78.8996	965.332	78.2774	965.332	78.039	965.332	77.6317	965.332	76.9491	965.332	75.9799	965.332	75.279	965.332	71.2525	965.332	72.3805	965.332	71.3214	965.332	72.653	965.332	73.6113	965.332	73.7131
1,000.49	86.6418	1,000.49	86.2341	1,000.49	86.5852	1,000.49	85.7816	1,000.49	85.8849	1,000.49	85.2058	1,000.49	84.898	1,000.49	84.2611	1,000.49	84.0275	1,000.49	83.4982	1,000.49	83.236	1,000.49	83.13	1,000.49	82.057	1,000.49	82.2664	1,000.49	80.309	1,000.49	81.0988	1,000.49	78.8831	1,000.49	80.2242	1,000.49	77.0949	1,000.49	79.2872	1,000.49	76.7771	1,000.49	78.8492	1,000.49	79.5395	1,000.49	77.9764	1,000.49	80.1955	1,000.49	76.6269	1,000.49	79.1243	1,000.49	74.5489	1,000.49	77.1114	1,000.49	71.1525	1,000.49	73.4618	1,000.49	74.2565	1,000.49	73.584	1,000.49	76.7462	1,000.49	76.0909	1,000.49	77.1474
1,035.64	85.7719	1,035.64	85.342	1,035.64	85.6938	1,035.64	84.9085	1,035.64	85.3211	1,035.64	84.8257	1,035.64	84.834	1,035.64	84.3635	1,035.64	83.941	1,035.64	83.2145	1,035.64	82.6333	1,035.64	82.2809	1,035.64	81.4415	1,035.64	81.3676	1,035.64	80.1247	1,035.64	79.7839	1,035.64	78.3905	1,035.64	78.2677	1,035.64	77.3057	1,035.64	77.4952	1,035.64	77.2055	1,035.64	76.9429	1,035.64	75.4728	1,035.64	76.3806	1,035.64	72.364	1,035.64	74.22	1,035.64	71.6162	1,035.64	69.8015	1,035.64	68.5924	1,035.64	69.5377	1,035.64	65.5252	1,035.64	73.3205	1,035.64	74.2238	1,035.64	75.8436	1,035.64	76.4124	1,035.64	76.3786
1,072.27	85.1324	1,072.27	84.9851	1,072.27	84.7829	1,072.27	84.2012	1,072.27	84.1117	1,072.27	83.3705	1,072.27	83.2704	1,072.27	83.0834	1,072.27	82.5402	1,072.27	82.1674	1,072.27	82.2502	1,072.27	80.7516	1,072.27	82.0771	1,072.27	80.5008	1,072.27	80.902	1,072.27	79.3652	1,072.27	78.616	1,072.27	77.5463	1,072.27	76.0659	1,072.27	76.3289	1,072.27	74.9694	1,072.27	75.685	1,072.27	77.2146	1,072.27	76.9396	1,072.27	77.2272	1,072.27	75.7021	1,072.27	75.4948	1,072.27	73.4708	1,072.27	73.3958	1,072.27	71.8312	1,072.27	65.3498	1,072.27	70.5547	1,072.27	68.7629	1,072.27	73.882	1,072.27	73.6177	1,072.27	75.0212
1,108.89	85.7097	1,108.89	85.3068	1,108.89	85.8171	1,108.89	85.1002	1,108.89	85.5641	1,108.89	84.7255	1,108.89	84.9757	1,108.89	83.4671	1,108.89	83.8327	1,108.89	82.1898	1,108.89	82.2669	1,108.89	81.0049	1,108.89	80.9531	1,108.89	79.3273	1,108.89	79.9994	1,108.89	78.7986	1,108.89	78.5931	1,108.89	78.2116	1,108.89	77.2906	1,108.89	78.7134	1,108.89	76.6094	1,108.89	79.337	1,108.89	76.2879	1,108.89	77.7282	1,108.89	76.5092	1,108.89	74.2173	1,108.89	75.436	1,108.89	68.825	1,108.89	72.2285	1,108.89	66.1955	1,108.89	68.4872	1,108.89	71.7045	1,108.89	68.4702	1,108.89	74.1804	1,108.89	72.9127	1,108.89	74.7178
1,148.44	85.3346	1,148.44	85.474	1,148.44	85.2534	1,148.44	84.9615	1,148.44	85.0223	1,148.44	84.155	1,148.44	84.3288	1,148.44	83.6284	1,148.44	83.5809	1,148.44	82.3686	1,148.44	82.7139	1,148.44	80.4855	1,148.44	81.6639	1,148.44	78.9237	1,148.44	80.5277	1,148.44	76.9632	1,148.44	78.9361	1,148.44	76.3405	1,148.44	76.2548	1,148.44	76.5161	1,148.44	74.9771	1,148.44	77.1297	1,148.44	75.9444	1,148.44	77.2067	1,148.44	76.2774	1,148.44	75.7468	1,148.44	75.4217	1,148.44	71.7254	1,148.44	74.222	1,148.44	69.6428	1,148.44	68.1565	1,148.44	72.945	1,148.44	68.9529	1,148.44	75.5945	1,148.44	73.7544	1,148.44	75.7541
1,189.45	86.7587	1,189.45	86.2868	1,189.45	86.9008	1,189.45	85.7196	1,189.45	86.7814	1,189.45	85.4056	1,189.45	86.0921	1,189.45	84.5862	1,189.45	84.757	1,189.45	83.4202	1,189.45	83.7808	1,189.45	82.4606	1,189.45	82.6727	1,189.45	81.3282	1,189.45	81.1371	1,189.45	79.7709	1,189.45	79.8782	1,189.45	76.2022	1,189.45	78.5615	1,189.45	75.9509	1,189.45	77.2233	1,189.45	77.9524	1,189.45	76.7618	1,189.45	78.6958	1,189.45	77.6723	1,189.45	76.1025	1,189.45	76.5613	1,189.45	71.72	1,189.45	72.841	1,189.45	70.5202	1,189.45	64.7967	1,189.45	76.5726	1,189.45	72.5008	1,189.45	78.7535	1,189.45	76.8643	1,189.45	78.8225
1,230.47	87.0264	1,230.47	86.3502	1,230.47	86.7926	1,230.47	85.5629	1,230.47	86.3412	1,230.47	85.4021	1,230.47	85.7856	1,230.47	84.5937	1,230.47	84.5654	1,230.47	83.5624	1,230.47	83.1451	1,230.47	83.2616	1,230.47	82.6366	1,230.47	82.0517	1,230.47	81.7937	1,230.47	79.1988	1,230.47	81.0334	1,230.47	74.2828	1,230.47	78.8907	1,230.47	74.1237	1,230.47	74.6981	1,230.47	76.9349	1,230.47	75.2833	1,230.47	77.0584	1,230.47	76.3069	1,230.47	77.2918	1,230.47	75.8319	1,230.47	72.8966	1,230.47	72.492	1,230.47	69.2231	1,230.47	65.7198	1,230.47	73.0855	1,230.47	71.0233	1,230.47	76.4765	1,230.47	74.6741	1,230.47	77.2139
1,274.41	86.2717	1,274.41	86.3672	1,274.41	86.4662	1,274.41	86.1261	1,274.41	86.2096	1,274.41	84.8659	1,274.41	85.2327	1,274.41	83.9297	1,274.41	84.2232	1,274.41	83.1246	1,274.41	83.5618	1,274.41	82.0376	1,274.41	82.5416	1,274.41	81.3048	1,274.41	81.1532	1,274.41	80.3881	1,274.41	80.5598	1,274.41	77.579	1,274.41	79.6959	1,274.41	75.5937	1,274.41	78.3882	1,274.41	75.6597	1,274.41	76.8169	1,274.41	77.1125	1,274.41	76.8179	1,274.41	74.5847	1,274.41	75.7707	1,274.41	68.6085	1,274.41	70.3374	1,274.41	65.5458	1,274.41	47.9952	1,274.41	75.4983	1,274.41	69.2736	1,274.41	77.8116	1,274.41	74.4402	1,274.41	77.448
1,319.82	86.7316	1,319.82	86.6609	1,319.82	86.0905	1,319.82	85.9113	1,319.82	85.641	1,319.82	85.1709	1,319.82	85.4151	1,319.82	83.6922	1,319.82	84.3341	1,319.82	82.2072	1,319.82	82.5629	1,319.82	81.3885	1,319.82	81.6049	1,319.82	80.84	1,319.82	81.1281	1,319.82	80.9321	1,319.82	80.1842	1,319.82	79.8233	1,319.82	78.699	1,319.82	73.9537	1,319.82	73.863	1,319.82	72.9759	1,319.82	72.6232	1,319.82	76.14	1,319.82	75.9679	1,319.82	75.7958	1,319.82	76.4526	1,319.82	67.7274	1,319.82	73.1763	1,319.82	67.8262	1,319.82	61.7572	1,319.82	75.8087	1,319.82	72.0916	1,319.82	79.4174	1,319.82	76.4458	1,319.82	78.7688
1,366.7	86.1949	1,366.7	86.3689	1,366.7	86.2576	1,366.7	86.6791	1,366.7	85.8331	1,366.7	85.4804	1,366.7	85.4346	1,366.7	83.9339	1,366.7	84.1645	1,366.7	82.2741	1,366.7	82.582	1,366.7	80.7757	1,366.7	81.2034	1,366.7	80.302	1,366.7	80.0312	1,366.7	79.8137	1,366.7	79.8181	1,366.7	78.2577	1,366.7	79.5608	1,366.7	74.5731	1,366.7	76.4939	1,366.7	74.3574	1,366.7	72.5652	1,366.7	78.0228	1,366.7	76.1568	1,366.7	77.9392	1,366.7	76.9015	1,366.7	72.4664	1,366.7	74.5672	1,366.7	55.5226	1,366.7	66.7403	1,366.7	74.2	1,366.7	69.3517	1,366.7	78.0101	1,366.7	75.4026	1,366.7	77.6564
1,413.57	86.9508	1,413.57	86.5531	1,413.57	87.1828	1,413.57	86.5512	1,413.57	86.3821	1,413.57	85.7857	1,413.57	86.1396	1,413.57	84.7318	1,413.57	85.5276	1,413.57	83.3525	1,413.57	83.9923	1,413.57	80.648	1,413.57	83.1466	1,413.57	79.6871	1,413.57	80.6774	1,413.57	77.6407	1,413.57	79.0594	1,413.57	75.5133	1,413.57	77.3605	1,413.57	73.2913	1,413.57	75.0325	1,413.57	71.1956	1,413.57	72.5124	1,413.57	74.1789	1,413.57	74.7412	1,413.57	77.3601	1,413.57	75.7221	1,413.57	72.7293	1,413.57	75.2135	1,413.57	61.4264	1,413.57	69.4184	1,413.57	73.6952	1,413.57	62.988	1,413.57	76.6675	1,413.57	72.9594	1,413.57	75.8326
1,463.38	87.0108	1,463.38	86.8422	1,463.38	86.4349	1,463.38	85.9109	1,463.38	86.041	1,463.38	85.435	1,463.38	85.8897	1,463.38	84.1303	1,463.38	85.1908	1,463.38	82.7061	1,463.38	84.0758	1,463.38	81.0219	1,463.38	83.1772	1,463.38	79.531	1,463.38	82.085	1,463.38	78.7608	1,463.38	81.3734	1,463.38	77.2846	1,463.38	79.8835	1,463.38	74.1659	1,463.38	77.834	1,463.38	71.8623	1,463.38	74.0655	1,463.38	73.1325	1,463.38	75.5581	1,463.38	73.7591	1,463.38	76.8951	1,463.38	72.264	1,463.38	75.5419	1,463.38	69.2631	1,463.38	69.046	1,463.38	68.0077	1,463.38	63.7446	1,463.38	72.425	1,463.38	74.7837	1,463.38	75.5319
1,516.11	87.3389	1,516.11	87.161	1,516.11	87.2242	1,516.11	86.4831	1,516.11	86.826	1,516.11	85.7756	1,516.11	85.953	1,516.11	84.8215	1,516.11	85.272	1,516.11	82.868	1,516.11	84.2039	1,516.11	80.3542	1,516.11	82.551	1,516.11	79.0808	1,516.11	81.1069	1,516.11	77.8291	1,516.11	79.8235	1,516.11	78.1482	1,516.11	77.3262	1,516.11	75.8702	1,516.11	74.8389	1,516.11	72.019	1,516.11	70.9913	1,516.11	73.1317	1,516.11	75.0583	1,516.11	76.0034	1,516.11	77.2428	1,516.11	75.2696	1,516.11	76.2121	1,516.11	66.2589	1,516.11	71.5177	1,516.11	66.7488	1,516.11	63.5111	1,516.11	73.3361	1,516.11	73.3649	1,516.11	75.4147
1,568.85	87.032	1,568.85	86.5464	1,568.85	86.6182	1,568.85	85.6196	1,568.85	85.5275	1,568.85	85.5171	1,568.85	84.8232	1,568.85	84.2434	1,568.85	84.0347	1,568.85	82.2656	1,568.85	82.9333	1,568.85	81.0432	1,568.85	80.5832	1,568.85	79.2986	1,568.85	78.5339	1,568.85	79.0477	1,568.85	77.6018	1,568.85	78.2445	1,568.85	75.8336	1,568.85	76.0851	1,568.85	73.7627	1,568.85	74.3046	1,568.85	69.7336	1,568.85	75.3121	1,568.85	72.516	1,568.85	77.174	1,568.85	76.0242	1,568.85	76.3781	1,568.85	75.8629	1,568.85	70.0629	1,568.85	70.153	1,568.85	68.9829	1,568.85	64.0082	1,568.85	72.606	1,568.85	72.6327	1,568.85	74.6175
1,624.51	86.0333	1,624.51	85.6107	1,624.51	85.6791	1,624.51	85.2027	1,624.51	84.8775	1,624.51	83.9617	1,624.51	84.0063	1,624.51	82.1752	1,624.51	83.1839	1,624.51	80.0076	1,624.51	82.3124	1,624.51	78.7097	1,624.51	79.9462	1,624.51	76.9708	1,624.51	78.7795	1,624.51	76.865	1,624.51	77.2879	1,624.51	77.4075	1,624.51	74.9949	1,624.51	73.5041	1,624.51	74.7001	1,624.51	66.7444	1,624.51	73.8024	1,624.51	73.298	1,624.51	71.914	1,624.51	75.6718	1,624.51	75.035	1,624.51	74.9758	1,624.51	75.0695	1,624.51	69.2339	1,624.51	72.1684	1,624.51	45.7941	1,624.51	54.6217	1,624.51	67.4727	1,624.51	68.6818	1,624.51	71.7353
1,681.64	84.7161	1,681.64	84.6594	1,681.64	85.1971	1,681.64	83.9605	1,681.64	84.7685	1,681.64	81.6787	1,681.64	82.8755	1,681.64	81.676	1,681.64	81.2103	1,681.64	81.2043	1,681.64	80.8244	1,681.64	79.2123	1,681.64	80.2552	1,681.64	77.4062	1,681.64	79.574	1,681.64	74.6329	1,681.64	76.9669	1,681.64	76.2291	1,681.64	75.2934	1,681.64	74.5883	1,681.64	75.2853	1,681.64	70.913	1,681.64	70.9127	1,681.64	72.5069	1,681.64	70.5604	1,681.64	76.5249	1,681.64	74.8605	1,681.64	73.7235	1,681.64	74.2197	1,681.64	67.1857	1,681.64	70.249	1,681.64	68.9277	1,681.64	53.9385	1,681.64	73.7946	1,681.64	72.4133	1,681.64	74.3317
1,741.7	87.0982	1,741.7	86.4692	1,741.7	86.4748	1,741.7	85.3858	1,741.7	86.0106	1,741.7	84.3916	1,741.7	85.4688	1,741.7	81.6616	1,741.7	83.9987	1,741.7	80.7747	1,741.7	83.379	1,741.7	80.447	1,741.7	81.5557	1,741.7	78.0016	1,741.7	80.2009	1,741.7	74.5351	1,741.7	78.1567	1,741.7	74.1583	1,741.7	76.3777	1,741.7	74.9743	1,741.7	75.8561	1,741.7	67.9318	1,741.7	75.6112	1,741.7	67.8814	1,741.7	70.4089	1,741.7	74.5021	1,741.7	73.0765	1,741.7	73.8628	1,741.7	75.5252	1,741.7	68.7191	1,741.7	73.0304	1,741.7	66.9522	1,741.7	67.0937	1,741.7	76.2846	1,741.7	75.046	1,741.7	77.3106
1,803.22	87.7219	1,803.22	87.3982	1,803.22	87.0889	1,803.22	86.8007	1,803.22	86.784	1,803.22	85.4248	1,803.22	85.4772	1,803.22	84.3342	1,803.22	84.263	1,803.22	82.614	1,803.22	83.1849	1,803.22	80.6889	1,803.22	81.8243	1,803.22	78.5272	1,803.22	80.755	1,803.22	76.1116	1,803.22	78.6427	1,803.22	74.7383	1,803.22	78.0084	1,803.22	77.7522	1,803.22	77.5735	1,803.22	72.2284	1,803.22	74.4178	1,803.22	53.2626	1,803.22	66.3081	1,803.22	74.6278	1,803.22	75.1578	1,803.22	78.1836	1,803.22	77.6305	1,803.22	73.483	1,803.22	71.5498	1,803.22	57.1799	1,803.22	61.0914	1,803.22	70.7933	1,803.22	71.8418	1,803.22	71.1575
1,866.21	86.7367	1,866.21	86.6628	1,866.21	86.6111	1,866.21	86.0272	1,866.21	85.9528	1,866.21	85.5923	1,866.21	84.7542	1,866.21	84.0459	1,866.21	83.4373	1,866.21	82.603	1,866.21	81.6357	1,866.21	80.765	1,866.21	79.2513	1,866.21	79.6939	1,866.21	79.2417	1,866.21	77.8511	1,866.21	76.0069	1,866.21	75.5625	1,866.21	76.7944	1,866.21	78.5055	1,866.21	75.0866	1,866.21	75.1094	1,866.21	74.1173	1,866.21	69.8226	1,866.21	67.2698	1,866.21	71.3063	1,866.21	72.2537	1,866.21	75.7329	1,866.21	75.2687	1,866.21	71.1095	1,866.21	75.6612	1,866.21	57.7059	1,866.21	67.8743	1,866.21	70.6231	1,866.21	70.6118	1,866.21	68.9507
1,932.13	86.5892	1,932.13	86.4653	1,932.13	85.9846	1,932.13	86.4273	1,932.13	86.0636	1,932.13	83.5312	1,932.13	85.9526	1,932.13	81.5562	1,932.13	84.5068	1,932.13	79.7328	1,932.13	81.9717	1,932.13	76.694	1,932.13	79.8195	1,932.13	76.7495	1,932.13	76.3949	1,932.13	76.9113	1,932.13	77.3121	1,932.13	76.7982	1,932.13	75.1079	1,932.13	76.4357	1,932.13	75.6199	1,932.13	72.8349	1,932.13	72.5359	1,932.13	62.4044	1,932.13	70.8355	1,932.13	69.4307	1,932.13	72.6062	1,932.13	71.6589	1,932.13	74.9949	1,932.13	66.3112	1,932.13	74.4839	1,932.13	50.4608	1,932.13	66.6494	1,932.13	71.9344	1,932.13	67.9148	1,932.13	71.572
1,999.51	87.0364	1,999.51	86.5472	1,999.51	87.1173	1,999.51	85.6829	1,999.51	86.5478	1,999.51	84.7081	1,999.51	85.9482	1,999.51	83.8879	1,999.51	84.6912	1,999.51	82.1751	1,999.51	82.9191	1,999.51	79.1779	1,999.51	80.7549	1,999.51	77.5137	1,999.51	79.3542	1,999.51	76.2042	1,999.51	77.9555	1,999.51	73.9498	1,999.51	76.6583	1,999.51	73.0425	1,999.51	74.8878	1,999.51	73.579	1,999.51	74.3878	1,999.51	65.6925	1,999.51	68.6583	1,999.51	70.4058	1,999.51	68.9215	1,999.51	74.3038	1,999.51	74.5659	1,999.51	71.1677	1,999.51	73.2085	1,999.51	62.922	1,999.51	65.1541	1,999.51	69.9784	1,999.51	65.0527	1,999.51	69.7611
2,069.82	87.9001	2,069.82	87.2696	2,069.82	87.6053	2,069.82	86.5477	2,069.82	86.992	2,069.82	85.4574	2,069.82	86.004	2,069.82	84.3873	2,069.82	84.7304	2,069.82	82.9227	2,069.82	83.3374	2,069.82	80.8289	2,069.82	81.1075	2,069.82	78.3389	2,069.82	79.5405	2,069.82	76.8843	2,069.82	78.3876	2,069.82	75.122	2,069.82	76.1015	2,069.82	74.8287	2,069.82	73.1418	2,069.82	74.8925	2,069.82	74.8639	2,069.82	70.2572	2,069.82	71.2382	2,069.82	69.2624	2,069.82	68.9295	2,069.82	74.3422	2,069.82	74.4591	2,069.82	73.6153	2,069.82	75.2055	2,069.82	67.621	2,069.82	69.0092	2,069.82	66.9982	2,069.82	65.1699	2,069.82	68.4639
2,143.07	86.9853	2,143.07	86.8852	2,143.07	86.9787	2,143.07	86.0438	2,143.07	86.293	2,143.07	84.7695	2,143.07	85.1574	2,143.07	83.2718	2,143.07	83.6872	2,143.07	82.2626	2,143.07	82.5891	2,143.07	81.2538	2,143.07	80.6426	2,143.07	78.427	2,143.07	78.9506	2,143.07	76.9406	2,143.07	77.0651	2,143.07	74.5894	2,143.07	75.256	2,143.07	72.899	2,143.07	72.8393	2,143.07	74.6027	2,143.07	72.8455	2,143.07	71.3746	2,143.07	71.7588	2,143.07	69.169	2,143.07	65.5402	2,143.07	73.8912	2,143.07	72.0656	2,143.07	74.1606	2,143.07	74.64	2,143.07	66.4882	2,143.07	69.6174	2,143.07	55.8317	2,143.07	60.8417	2,143.07	66.5242
2,219.24	86.6793	2,219.24	86.229	2,219.24	86.5816	2,219.24	85.2345	2,219.24	85.9001	2,219.24	84.1023	2,219.24	84.9364	2,219.24	82.4876	2,219.24	83.6765	2,219.24	80.6233	2,219.24	82.0412	2,219.24	78.5392	2,219.24	80.4811	2,219.24	77.3183	2,219.24	78.7419	2,219.24	74.4229	2,219.24	76.8961	2,219.24	73.9815	2,219.24	74.6687	2,219.24	70.2932	2,219.24	73.868	2,219.24	70.5688	2,219.24	72.669	2,219.24	69.6994	2,219.24	72.5009	2,219.24	64.7641	2,219.24	67.082	2,219.24	73.076	2,219.24	71.6322	2,219.24	73.4285	2,219.24	73.9001	2,219.24	64.5129	2,219.24	70.1232	2,219.24	63.2987	2,219.24	60.7988	2,219.24	65.4774
2,296.88	86.8882	2,296.88	86.4222	2,296.88	86.7875	2,296.88	85.7794	2,296.88	86.1392	2,296.88	84.6546	2,296.88	85.3568	2,296.88	83.1567	2,296.88	83.9635	2,296.88	81.7542	2,296.88	82.6272	2,296.88	79.5127	2,296.88	80.9537	2,296.88	77.7404	2,296.88	79.0807	2,296.88	76.5924	2,296.88	77.3694	2,296.88	74.2692	2,296.88	76.5931	2,296.88	71.9894	2,296.88	74.4817	2,296.88	70.2099	2,296.88	73.4198	2,296.88	70.4877	2,296.88	72.4021	2,296.88	62.6975	2,296.88	68.0143	2,296.88	69.9569	2,296.88	70.7909	2,296.88	72.4236	2,296.88	73.6736	2,296.88	67.0089	2,296.88	71.5909	2,296.88	47.8387	2,296.88	57.3731	2,296.88	57.1092
2,378.91	86.9374	2,378.91	86.3491	2,378.91	86.6938	2,378.91	85.7477	2,378.91	86.1524	2,378.91	84.8516	2,378.91	85.0523	2,378.91	83.6896	2,378.91	83.9188	2,378.91	81.9155	2,378.91	82.5679	2,378.91	79.5231	2,378.91	80.6832	2,378.91	78.4671	2,378.91	78.5094	2,378.91	76.6037	2,378.91	76.7558	2,378.91	74.6006	2,378.91	73.1953	2,378.91	73.765	2,378.91	74.0326	2,378.91	71.267	2,378.91	72.2352	2,378.91	71.8576	2,378.91	71.2215	2,378.91	67.7636	2,378.91	69.8291	2,378.91	67.971	2,378.91	65.996	2,378.91	70.4089	2,378.91	71.8694	2,378.91	68.6533	2,378.91	69.7719	2,378.91	64.7589	2,378.91	63.1936	2,378.91	65.9362
2,462.4	86.0273	2,462.4	85.6061	2,462.4	86.2936	2,462.4	84.884	2,462.4	85.7537	2,462.4	83.6972	2,462.4	84.7836	2,462.4	82.673	2,462.4	83.2479	2,462.4	80.8469	2,462.4	82.1943	2,462.4	78.6907	2,462.4	80.2615	2,462.4	76.9264	2,462.4	78.3315	2,462.4	74.9517	2,462.4	76.9552	2,462.4	73.381	2,462.4	73.8799	2,462.4	72.4542	2,462.4	73.0807	2,462.4	71.6529	2,462.4	72.6325	2,462.4	70.9936	2,462.4	71.3442	2,462.4	69.0671	2,462.4	69.6224	2,462.4	67.163	2,462.4	67.1111	2,462.4	70.2794	2,462.4	69.3544	2,462.4	66.5141	2,462.4	69.314	2,462.4	65.9375	2,462.4	64.6595	2,462.4	68.5638
2,548.83	86.4248	2,548.83	86.5016	2,548.83	86.6201	2,548.83	85.3833	2,548.83	86.1894	2,548.83	84.0539	2,548.83	85.2861	2,548.83	82.154	2,548.83	84.1164	2,548.83	81.3628	2,548.83	82.6671	2,548.83	79.4974	2,548.83	80.6224	2,548.83	77.8002	2,548.83	78.9782	2,548.83	76.4638	2,548.83	76.7309	2,548.83	71.9745	2,548.83	74.6749	2,548.83	71.8358	2,548.83	72.2233	2,548.83	70.5997	2,548.83	72.7539	2,548.83	69.8328	2,548.83	71.5915	2,548.83	64.6032	2,548.83	69.6594	2,548.83	63.809	2,548.83	67.1212	2,548.83	67.9736	2,548.83	71.2499	2,548.83	62.8094	2,548.83	70.8437	2,548.83	63.9053	2,548.83	64.4241	2,548.83	65.1386
2,639.65	86.2238	2,639.65	86.0983	2,639.65	86.1141	2,639.65	85.3465	2,639.65	85.6122	2,639.65	84.1384	2,639.65	84.6131	2,639.65	82.0821	2,639.65	83.3629	2,639.65	80.8046	2,639.65	82.2304	2,639.65	79.7259	2,639.65	80.3852	2,639.65	76.6715	2,639.65	78.0088	2,639.65	75.9558	2,639.65	76.1401	2,639.65	74.0632	2,639.65	73.6896	2,639.65	71.1679	2,639.65	71.8768	2,639.65	69.5539	2,639.65	70.9146	2,639.65	69.5532	2,639.65	70.181	2,639.65	70.7321	2,639.65	69.935	2,639.65	63.4893	2,639.65	64.993	2,639.65	70.9381	2,639.65	69.8631	2,639.65	67.3593	2,639.65	68.7703	2,639.65	63.6056	2,639.65	63.7594	2,639.65	64.1719
2,731.93	86.6238	2,731.93	86.2186	2,731.93	86.1031	2,731.93	85.3175	2,731.93	86.0266	2,731.93	84.3319	2,731.93	84.9694	2,731.93	82.0202	2,731.93	84.0373	2,731.93	79.717	2,731.93	81.9341	2,731.93	79.0682	2,731.93	80.7764	2,731.93	77.5093	2,731.93	79.1441	2,731.93	74.4863	2,731.93	76.1049	2,731.93	73.5338	2,731.93	75.7845	2,731.93	68.9973	2,731.93	72.5396	2,731.93	69.806	2,731.93	72.6511	2,731.93	68.7593	2,731.93	68.0404	2,731.93	70.2945	2,731.93	70.2617	2,731.93	64.6207	2,731.93	68.9638	2,731.93	66.8038	2,731.93	64.2564	2,731.93	68.1336	2,731.93	68.5138	2,731.93	64.9667	2,731.93	66.8481	2,731.93	65.5072
2,828.61	87.227	2,828.61	86.8267	2,828.61	87.3491	2,828.61	86.2747	2,828.61	86.7579	2,828.61	84.8618	2,828.61	86.1378	2,828.61	83.5777	2,828.61	85.0876	2,828.61	81.0303	2,828.61	83.4685	2,828.61	78.9384	2,828.61	81.5509	2,828.61	77.1292	2,828.61	80.2017	2,828.61	74.0618	2,828.61	78.2386	2,828.61	74.1901	2,828.61	76.9979	2,828.61	71.3586	2,828.61	74.4521	2,828.61	70.2236	2,828.61	71.4185	2,828.61	66.3153	2,828.61	69.5748	2,828.61	69.7224	2,828.61	70.1862	2,828.61	66.7528	2,828.61	69.6589	2,828.61	65.5514	2,828.61	67.8901	2,828.61	65.4917	2,828.61	67.9909	2,828.61	66.3009	2,828.61	64.222	2,828.61	69.8124
2,928.22	86.6114	2,928.22	86.2585	2,928.22	86.8366	2,928.22	85.9994	2,928.22	86.4352	2,928.22	84.808	2,928.22	86.0998	2,928.22	83.9366	2,928.22	84.8996	2,928.22	81.7966	2,928.22	83.4735	2,928.22	79.3845	2,928.22	81.636	2,928.22	77.065	2,928.22	79.5674	2,928.22	75.2228	2,928.22	77.5892	2,928.22	75.0171	2,928.22	76.0287	2,928.22	72.8748	2,928.22	73.5818	2,928.22	71.6756	2,928.22	70.3562	2,928.22	67.4434	2,928.22	70.7701	2,928.22	69.1019	2,928.22	67.9366	2,928.22	67.6098	2,928.22	68.6285	2,928.22	66.7864	2,928.22	68.385	2,928.22	67.6708	2,928.22	67.5274	2,928.22	56.7916	2,928.22	66.0609	2,928.22	66.2169
3,030.76	86.736	3,030.76	86.2641	3,030.76	87.8237	3,030.76	85.9143	3,030.76	87.0083	3,030.76	84.9047	3,030.76	87.0002	3,030.76	83.8431	3,030.76	85.9356	3,030.76	83.0415	3,030.76	84.8284	3,030.76	79.6698	3,030.76	82.1766	3,030.76	77.5136	3,030.76	80.3344	3,030.76	76.3053	3,030.76	78.7812	3,030.76	73.6212	3,030.76	76.2721	3,030.76	72.6054	3,030.76	74.6882	3,030.76	72.0367	3,030.76	73.2126	3,030.76	69.4275	3,030.76	72.9193	3,030.76	69.0445	3,030.76	69.2967	3,030.76	67.3676	3,030.76	72.4802	3,030.76	66.7947	3,030.76	66.7045	3,030.76	65.3947	3,030.76	71.5411	3,030.76	67.1997	3,030.76	67.5117	3,030.76	66.6981
3,137.7	86.8506	3,137.7	86.7083	3,137.7	87.1852	3,137.7	86.2804	3,137.7	87.5367	3,137.7	85.6352	3,137.7	87.1678	3,137.7	84.7505	3,137.7	86.45	3,137.7	84.1193	3,137.7	84.9936	3,137.7	81.5883	3,137.7	83.0146	3,137.7	79.6883	3,137.7	80.2628	3,137.7	77.8576	3,137.7	78.8923	3,137.7	74.5105	3,137.7	76.6659	3,137.7	73.4822	3,137.7	75.4349	3,137.7	71.5504	3,137.7	73.0506	3,137.7	71.2574	3,137.7	73.8278	3,137.7	69.0636	3,137.7	71.3039	3,137.7	68.7975	3,137.7	72.0089	3,137.7	66.3268	3,137.7	67.6017	3,137.7	69.4067	3,137.7	70.979	3,137.7	67.7922	3,137.7	68.9702	3,137.7	69.9705
3,249.02	87.2012	3,249.02	87.166	3,249.02	86.8761	3,249.02	86.4944	3,249.02	87.3458	3,249.02	85.9724	3,249.02	86.7663	3,249.02	85.262	3,249.02	86.127	3,249.02	82.9544	3,249.02	84.3254	3,249.02	81.6575	3,249.02	82.7142	3,249.02	79.6871	3,249.02	79.7825	3,249.02	77.3896	3,249.02	78.4803	3,249.02	74.1101	3,249.02	76.5762	3,249.02	73.4926	3,249.02	74.475	3,249.02	70.0945	3,249.02	71.779	3,249.02	71.108	3,249.02	72.6013	3,249.02	69.5003	3,249.02	70.8471	3,249.02	69.4487	3,249.02	71.8793	3,249.02	68.0932	3,249.02	68.9187	3,249.02	68.7561	3,249.02	70.8212	3,249.02	68.9697	3,249.02	68.805	3,249.02	68.272
3,363.28	87.523	3,363.28	87.4483	3,363.28	87.1066	3,363.28	87.0747	3,363.28	87.3936	3,363.28	86.455	3,363.28	86.8296	3,363.28	85.4517	3,363.28	85.8971	3,363.28	82.7311	3,363.28	84.1512	3,363.28	81.3748	3,363.28	82.8163	3,363.28	78.2971	3,363.28	80.0753	3,363.28	76.6427	3,363.28	78.0312	3,363.28	73.9047	3,363.28	75.6822	3,363.28	73.4328	3,363.28	74.4562	3,363.28	69.8177	3,363.28	73.0675	3,363.28	70.7202	3,363.28	71.3637	3,363.28	68.2646	3,363.28	68.6445	3,363.28	70.7167	3,363.28	71.8638	3,363.28	66.7864	3,363.28	68.6814	3,363.28	69.6763	3,363.28	71.1648	3,363.28	66.0132	3,363.28	68.6984	3,363.28	68.3959
3,481.93	87.5757	3,481.93	87.1743	3,481.93	87.8419	3,481.93	87.4342	3,481.93	87.3435	3,481.93	86.9951	3,481.93	87.1337	3,481.93	85.4137	3,481.93	85.9728	3,481.93	83.2354	3,481.93	85.0428	3,481.93	81.6186	3,481.93	82.9019	3,481.93	79.0864	3,481.93	80.4734	3,481.93	76.9731	3,481.93	78.0308	3,481.93	74.599	3,481.93	75.9877	3,481.93	73.5088	3,481.93	73.6027	3,481.93	70.5477	3,481.93	73.2673	3,481.93	70.431	3,481.93	71.6224	3,481.93	69.189	3,481.93	69.8301	3,481.93	71.2265	3,481.93	71.2296	3,481.93	69.046	3,481.93	69.2514	3,481.93	68.9002	3,481.93	69.7001	3,481.93	67.1287	3,481.93	66.6189	3,481.93	69.0073
3,604.98	86.7972	3,604.98	86.9007	3,604.98	86.7126	3,604.98	86.8619	3,604.98	86.8437	3,604.98	86.5524	3,604.98	86.7725	3,604.98	85.4406	3,604.98	85.7554	3,604.98	83.6466	3,604.98	84.4356	3,604.98	81.0928	3,604.98	82.1835	3,604.98	78.6067	3,604.98	79.9405	3,604.98	76.3222	3,604.98	78.2225	3,604.98	74.7929	3,604.98	75.261	3,604.98	73.0671	3,604.98	72.753	3,604.98	71.2598	3,604.98	71.1388	3,604.98	68.9079	3,604.98	69.2437	3,604.98	68.5703	3,604.98	69.9843	3,604.98	69.9912	3,604.98	69.9508	3,604.98	69.1029	3,604.98	69.7486	3,604.98	69.1807	3,604.98	70.1923	3,604.98	67.5684	3,604.98	66.3828	3,604.98	68.8312
3,732.42	86.697	3,732.42	86.5834	3,732.42	87.094	3,732.42	86.701	3,732.42	87.2443	3,732.42	86.5769	3,732.42	87.075	3,732.42	84.7595	3,732.42	86.357	3,732.42	84.0774	3,732.42	85.0227	3,732.42	81.6591	3,732.42	82.5945	3,732.42	78.9972	3,732.42	80.1804	3,732.42	76.5021	3,732.42	78.3321	3,732.42	74.7116	3,732.42	75.5196	3,732.42	72.2199	3,732.42	73.6785	3,732.42	70.3843	3,732.42	71.6796	3,732.42	69.3592	3,732.42	70.7099	3,732.42	68.6175	3,732.42	69.1696	3,732.42	68.9636	3,732.42	69.8816	3,732.42	67.6157	3,732.42	70.7209	3,732.42	70.6003	3,732.42	71.2147	3,732.42	63.9466	3,732.42	66.2579	3,732.42	67.827
3,864.26	86.0746	3,864.26	86.7615	3,864.26	85.9932	3,864.26	87.1278	3,864.26	86.9511	3,864.26	86.3667	3,864.26	86.6983	3,864.26	85.6734	3,864.26	86.0464	3,864.26	84.2546	3,864.26	84.2182	3,864.26	81.8258	3,864.26	81.9865	3,864.26	79.5497	3,864.26	80.4211	3,864.26	76.8411	3,864.26	77.9426	3,864.26	75.6409	3,864.26	75.5039	3,864.26	71.399	3,864.26	72.5596	3,864.26	70.6252	3,864.26	71.3166	3,864.26	71.5045	3,864.26	68.5343	3,864.26	68.3829	3,864.26	68.2933	3,864.26	70.7915	3,864.26	69.8987	3,864.26	68.7579	3,864.26	68.9057	3,864.26	70.3162	3,864.26	71.4248	3,864.26	64.8413	3,864.26	68.6813	3,864.26	67.8478
4,000.49	86.4993	4,000.49	87.2168	4,000.49	86.162	4,000.49	87.0228	4,000.49	86.8856	4,000.49	86.5484	4,000.49	86.5459	4,000.49	86.0714	4,000.49	85.9429	4,000.49	83.8302	4,000.49	83.7849	4,000.49	81.5634	4,000.49	82.3747	4,000.49	78.951	4,000.49	80.3782	4,000.49	76.4934	4,000.49	77.006	4,000.49	74.9098	4,000.49	74.8518	4,000.49	72.5492	4,000.49	73.2834	4,000.49	70.7343	4,000.49	69.999	4,000.49	68.973	4,000.49	69.9222	4,000.49	68.4326	4,000.49	70.2539	4,000.49	69.7732	4,000.49	67.3086	4,000.49	66.3989	4,000.49	68.5862	4,000.49	69.2663	4,000.49	70.6147	4,000.49	65.6872	4,000.49	67.7181	4,000.49	67.9808
4,141.11	86.7774	4,141.11	86.6041	4,141.11	87.1386	4,141.11	87.2557	4,141.11	86.5027	4,141.11	86.5437	4,141.11	86.5548	4,141.11	85.1721	4,141.11	85.2347	4,141.11	83.4859	4,141.11	83.7201	4,141.11	81.2584	4,141.11	82.2137	4,141.11	79.4387	4,141.11	80.7824	4,141.11	77.4067	4,141.11	77.722	4,141.11	75.227	4,141.11	75.4563	4,141.11	73.1725	4,141.11	73.5473	4,141.11	70.185	4,141.11	71.1229	4,141.11	70.1394	4,141.11	69.6536	4,141.11	69.9955	4,141.11	68.0024	4,141.11	67.5591	4,141.11	67.9867	4,141.11	69.0932	4,141.11	70.2887	4,141.11	70.0353	4,141.11	69.1861	4,141.11	64.5964	4,141.11	64.5044	4,141.11	68.5569
4,287.6	87.1776	4,287.6	86.9643	4,287.6	86.8294	4,287.6	87.1447	4,287.6	86.6401	4,287.6	86.2059	4,287.6	85.8045	4,287.6	84.435	4,287.6	85.5796	4,287.6	82.6647	4,287.6	84.1448	4,287.6	81.6138	4,287.6	82.2595	4,287.6	79.4125	4,287.6	79.0779	4,287.6	77.351	4,287.6	76.3773	4,287.6	73.2454	4,287.6	75.9158	4,287.6	70.5648	4,287.6	72.7925	4,287.6	68.8348	4,287.6	71.1575	4,287.6	69.374	4,287.6	69.393	4,287.6	67.712	4,287.6	67.4944	4,287.6	66.7603	4,287.6	67.7186	4,287.6	70.0182	4,287.6	69.7293	4,287.6	70.337	4,287.6	68.7242	4,287.6	60.9642	4,287.6	66.1997	4,287.6	66.8443
4,438.48	86.4215	4,438.48	86.6101	4,438.48	86.6012	4,438.48	85.3634	4,438.48	86.5532	4,438.48	85.2356	4,438.48	86.2224	4,438.48	84.4266	4,438.48	85.1089	4,438.48	82.5957	4,438.48	84.0109	4,438.48	80.3302	4,438.48	80.8712	4,438.48	77.8206	4,438.48	78.4155	4,438.48	75.2511	4,438.48	77.909	4,438.48	73.7056	4,438.48	75.1941	4,438.48	73.4349	4,438.48	73.2549	4,438.48	69.8923	4,438.48	70.505	4,438.48	67.8301	4,438.48	69.6321	4,438.48	67.8611	4,438.48	66.6506	4,438.48	67.4595	4,438.48	67.4964	4,438.48	67.8942	4,438.48	66.8777	4,438.48	70.0851	4,438.48	70.1657	4,438.48	59.2776	4,438.48	65.3709	4,438.48	60.7074
4,595.21	87.2734	4,595.21	86.8751	4,595.21	86.981	4,595.21	87.2538	4,595.21	85.9626	4,595.21	86.0589	4,595.21	85.9006	4,595.21	85.3894	4,595.21	84.1425	4,595.21	84.0513	4,595.21	81.95	4,595.21	81.3678	4,595.21	81.1029	4,595.21	79.0805	4,595.21	78.7012	4,595.21	76.8396	4,595.21	75.8098	4,595.21	74.0948	4,595.21	74.6608	4,595.21	74.2098	4,595.21	72.8977	4,595.21	69.0897	4,595.21	70.8326	4,595.21	65.8535	4,595.21	68.0723	4,595.21	67.5251	4,595.21	66.533	4,595.21	67.819	4,595.21	67.4098	4,595.21	67.1885	4,595.21	67.5111	4,595.21	70.4167	4,595.21	69.8323	4,595.21	64.3578	4,595.21	64.9592	4,595.21	63.1166
4,756.35	87.0715	4,756.35	86.6382	4,756.35	86.2576	4,756.35	85.7274	4,756.35	85.815	4,756.35	84.8137	4,756.35	84.5999	4,756.35	83.3578	4,756.35	83.9922	4,756.35	81.4438	4,756.35	82.8545	4,756.35	80.5743	4,756.35	80.5996	4,756.35	78.4831	4,756.35	78.8775	4,756.35	75.5511	4,756.35	77.8339	4,756.35	70.5374	4,756.35	74.1018	4,756.35	71.1241	4,756.35	71.615	4,756.35	71.0267	4,756.35	69.4433	4,756.35	68.7347	4,756.35	69.5629	4,756.35	66.2668	4,756.35	66.7319	4,756.35	64.4269	4,756.35	67.4156	4,756.35	66.5633	4,756.35	68.9107	4,756.35	69.6226	4,756.35	68.3306	4,756.35	60.0606	4,756.35	67.146	4,756.35	62.9977
4,924.8	86.6829	4,924.8	86.3514	4,924.8	86.3686	4,924.8	84.4828	4,924.8	85.3051	4,924.8	84.5022	4,924.8	83.9718	4,924.8	83.2018	4,924.8	83.3728	4,924.8	82.3734	4,924.8	82.8132	4,924.8	80.9669	4,924.8	81.3544	4,924.8	80.0658	4,924.8	78.4874	4,924.8	75.7769	4,924.8	76.7013	4,924.8	75.7335	4,924.8	73.9847	4,924.8	70.0541	4,924.8	71.95	4,924.8	70.9329	4,924.8	70.141	4,924.8	68.2987	4,924.8	68.5273	4,924.8	68.8298	4,924.8	64.6469	4,924.8	65.2894	4,924.8	65.6629	4,924.8	67.6155	4,924.8	67.6527	4,924.8	68.2623	4,924.8	66.9649	4,924.8	63.67	4,924.8	66.5621	4,924.8	61.8233
5,097.66	87.32	5,097.66	86.1944	5,097.66	87.3694	5,097.66	85.5329	5,097.66	85.55	5,097.66	83.4848	5,097.66	84.9392	5,097.66	83.7159	5,097.66	83.7246	5,097.66	81.7908	5,097.66	82.3369	5,097.66	80.0523	5,097.66	80.8461	5,097.66	75.914	5,097.66	78.9192	5,097.66	73.8894	5,097.66	75.1707	5,097.66	72.7484	5,097.66	74.286	5,097.66	73.2297	5,097.66	71.726	5,097.66	69.4672	5,097.66	69.1376	5,097.66	64.7224	5,097.66	67.2208	5,097.66	65.8659	5,097.66	64.1716	5,097.66	68.7373	5,097.66	63.5533	5,097.66	66.8107	5,097.66	67.1566	5,097.66	67.4061	5,097.66	68.1548	5,097.66	62.6097	5,097.66	66.8927	5,097.66	59.697
5,277.83	86.7072	5,277.83	85.5249	5,277.83	85.9193	5,277.83	84.3069	5,277.83	85.157	5,277.83	83.5241	5,277.83	83.6276	5,277.83	83.0469	5,277.83	83.289	5,277.83	82.0443	5,277.83	82.8354	5,277.83	79.956	5,277.83	80.4194	5,277.83	77.1458	5,277.83	78.2897	5,277.83	76.4512	5,277.83	76.7256	5,277.83	72.5366	5,277.83	72.5464	5,277.83	72.1908	5,277.83	70.2895	5,277.83	69.0782	5,277.83	68.6746	5,277.83	68.1458	5,277.83	67.3318	5,277.83	61.0301	5,277.83	65.6574	5,277.83	65.1586	5,277.83	65.1887	5,277.83	65.9824	5,277.83	66.1224	5,277.83	68.0217	5,277.83	64.8587	5,277.83	62.6489	5,277.83	65.9716	5,277.83	58.7055
5,463.87	87.3599	5,463.87	86.5247	5,463.87	86.8552	5,463.87	84.7145	5,463.87	85.021	5,463.87	83.6748	5,463.87	83.6841	5,463.87	82.3601	5,463.87	83.3657	5,463.87	81.7588	5,463.87	82.2789	5,463.87	79.6916	5,463.87	80.9486	5,463.87	78.4939	5,463.87	79.217	5,463.87	74.9309	5,463.87	75.9115	5,463.87	72.8912	5,463.87	72.0031	5,463.87	64.0509	5,463.87	70.1324	5,463.87	65.7715	5,463.87	69.5207	5,463.87	62.9011	5,463.87	66.156	5,463.87	61.9636	5,463.87	66.1051	5,463.87	57.8218	5,463.87	63.3567	5,463.87	67.8692	5,463.87	64.751	5,463.87	66.1475	5,463.87	66.4394	5,463.87	62.5728	5,463.87	65.3091	5,463.87	59.1077
5,657.23	87.7588	5,657.23	86.6777	5,657.23	87.1607	5,657.23	84.5381	5,657.23	85.2904	5,657.23	82.9323	5,657.23	84.0285	5,657.23	82.3618	5,657.23	82.8541	5,657.23	80.2144	5,657.23	81.4827	5,657.23	78.0019	5,657.23	80.2997	5,657.23	75.0213	5,657.23	78.0488	5,657.23	72.5921	5,657.23	73.8745	5,657.23	70.2437	5,657.23	72.7422	5,657.23	69.5602	5,657.23	69.3928	5,657.23	65.6112	5,657.23	67.4879	5,657.23	64.8422	5,657.23	65.6396	5,657.23	63.8899	5,657.23	65.9117	5,657.23	62.7721	5,657.23	65.6334	5,657.23	64.9821	5,657.23	65.5486	5,657.23	63.7078	5,657.23	66.7195	5,657.23	62.7435	5,657.23	65.9797	5,657.23	59.1889
5,856.45	87.7864	5,856.45	86.3592	5,856.45	87.0018	5,856.45	84.4195	5,856.45	85.8125	5,856.45	83.2636	5,856.45	83.2126	5,856.45	82.33	5,856.45	82.8263	5,856.45	80.7431	5,856.45	81.6311	5,856.45	78.6484	5,856.45	79.9197	5,856.45	75.0377	5,856.45	77.5237	5,856.45	73.2096	5,856.45	75.4988	5,856.45	70.4662	5,856.45	72.8704	5,856.45	69.6474	5,856.45	69.6297	5,856.45	66.7192	5,856.45	67.9361	5,856.45	67.1071	5,856.45	66.2115	5,856.45	66.6229	5,856.45	66.2931	5,856.45	61.2397	5,856.45	63.563	5,856.45	61.491	5,856.45	63.482	5,856.45	65.2032	5,856.45	66.9326	5,856.45	61.7745	5,856.45	64.9527	5,856.45	60.0027
6,062.99	87.5235	6,062.99	86.2325	6,062.99	87.2426	6,062.99	84.7067	6,062.99	84.9491	6,062.99	83.2301	6,062.99	83.9766	6,062.99	81.8995	6,062.99	82.1226	6,062.99	80.7423	6,062.99	80.6501	6,062.99	78.3107	6,062.99	78.674	6,062.99	76.9852	6,062.99	77.4728	6,062.99	72.9523	6,062.99	74.0454	6,062.99	71.1249	6,062.99	71.7156	6,062.99	67.3048	6,062.99	69.0292	6,062.99	66.5248	6,062.99	66.4873	6,062.99	63.1641	6,062.99	64.4265	6,062.99	68.0252	6,062.99	61.5322	6,062.99	67.4135	6,062.99	60.9108	6,062.99	63.4109	6,062.99	64.44	6,062.99	62.5615	6,062.99	64.4861	6,062.99	57.633	6,062.99	64.0559	6,062.99	58.8088
6,276.86	87.8959	6,276.86	86.885	6,276.86	87.4315	6,276.86	85.2141	6,276.86	85.561	6,276.86	83.1665	6,276.86	83.7537	6,276.86	82.2904	6,276.86	82.7225	6,276.86	79.7496	6,276.86	80.4635	6,276.86	78.0134	6,276.86	77.8999	6,276.86	76.2198	6,276.86	74.3416	6,276.86	72.7671	6,276.86	73.5311	6,276.86	70.4686	6,276.86	71.0146	6,276.86	68.064	6,276.86	68.3699	6,276.86	67.8231	6,276.86	66.3631	6,276.86	64.6096	6,276.86	64.6534	6,276.86	63.6426	6,276.86	61.4099	6,276.86	65.4809	6,276.86	61.0888	6,276.86	63.3042	6,276.86	64.7973	6,276.86	63.2942	6,276.86	63.9167	6,276.86	58.4857	6,276.86	65.5567	6,276.86	56.3913
6,498.05	88.0295	6,498.05	87.1323	6,498.05	87.7089	6,498.05	85.2075	6,498.05	86.0701	6,498.05	83.1996	6,498.05	83.7426	6,498.05	81.6352	6,498.05	82.5348	6,498.05	79.4213	6,498.05	81.0799	6,498.05	77.7922	6,498.05	78.2693	6,498.05	74.2954	6,498.05	76.0425	6,498.05	72.7716	6,498.05	73.3977	6,498.05	69.5977	6,498.05	70.2066	6,498.05	67.3899	6,498.05	67.8849	6,498.05	67.3099	6,498.05	66.37	6,498.05	60.2861	6,498.05	61.7673	6,498.05	53.4652	6,498.05	62.7418	6,498.05	61.9882	6,498.05	63.567	6,498.05	64.2184	6,498.05	61.0831	6,498.05	62.7553	6,498.05	63.9295	6,498.05	59.5711	6,498.05	63.9407	6,498.05	56.5924
6,726.56	87.7962	6,726.56	86.8323	6,726.56	87.5856	6,726.56	85.0222	6,726.56	85.445	6,726.56	82.9872	6,726.56	83.7787	6,726.56	80.8639	6,726.56	81.1772	6,726.56	80.1791	6,726.56	79.3387	6,726.56	76.6327	6,726.56	78.0331	6,726.56	75.2866	6,726.56	75.7349	6,726.56	72.4861	6,726.56	73.3309	6,726.56	70.0884	6,726.56	69.3293	6,726.56	66.8738	6,726.56	68.1624	6,726.56	66.6868	6,726.56	65.1087	6,726.56	61.4237	6,726.56	61.895	6,726.56	62.1827	6,726.56	59.6919	6,726.56	59.4316	6,726.56	58.6805	6,726.56	61.8894	6,726.56	63.7347	6,726.56	63.3321	6,726.56	61.6954	6,726.56	58.9776	6,726.56	63.8763	6,726.56	49.5108
6,963.87	88.0462	6,963.87	87.1718	6,963.87	87.3642	6,963.87	85.7461	6,963.87	86.1904	6,963.87	82.8113	6,963.87	83.338	6,963.87	81.6537	6,963.87	81.4582	6,963.87	78.2808	6,963.87	79.5016	6,963.87	78.5637	6,963.87	77.2009	6,963.87	76.0554	6,963.87	74.9432	6,963.87	73.407	6,963.87	72.4111	6,963.87	70.2396	6,963.87	69.6416	6,963.87	68.8891	6,963.87	67.2872	6,963.87	63.9295	6,963.87	64.6093	6,963.87	58.6713	6,963.87	63.3378	6,963.87	60.7517	6,963.87	62.7689	6,963.87	58.7273	6,963.87	62.5793	6,963.87	60.7971	6,963.87	57.5265	6,963.87	62.2678	6,963.87	61.7958	6,963.87	58.1198	6,963.87	64.5087	6,963.87	53.0997
7,209.96	88.0962	7,209.96	87.7322	7,209.96	87.8873	7,209.96	85.8889	7,209.96	86.4141	7,209.96	83.3799	7,209.96	83.9161	7,209.96	81.3041	7,209.96	81.3357	7,209.96	80.4102	7,209.96	79.6627	7,209.96	78.198	7,209.96	78.0301	7,209.96	76.445	7,209.96	76.7508	7,209.96	71.961	7,209.96	72.1837	7,209.96	69.9974	7,209.96	69.9681	7,209.96	67.5064	7,209.96	66.6537	7,209.96	65.0062	7,209.96	65.9187	7,209.96	63.5218	7,209.96	63.0345	7,209.96	60.0608	7,209.96	59.2701	7,209.96	61.4187	7,209.96	56.4347	7,209.96	62.4635	7,209.96	59.3129	7,209.96	62.3101	7,209.96	63.2933	7,209.96	61.8426	7,209.96	62.9085	7,209.96	53.4517
7,464.84	88.1785	7,464.84	87.4094	7,464.84	87.8858	7,464.84	85.8616	7,464.84	86.6013	7,464.84	82.4976	7,464.84	83.8764	7,464.84	80.6248	7,464.84	81.4338	7,464.84	79.5408	7,464.84	78.9361	7,464.84	76.8339	7,464.84	78.1077	7,464.84	74.528	7,464.84	75.4389	7,464.84	71.6154	7,464.84	73.0353	7,464.84	70.1447	7,464.84	70.5705	7,464.84	65.926	7,464.84	66.8009	7,464.84	65.3403	7,464.84	64.7226	7,464.84	60.5359	7,464.84	63.8831	7,464.84	61.8083	7,464.84	55.3383	7,464.84	57.2649	7,464.84	55.0855	7,464.84	60.6395	7,464.84	60.6273	7,464.84	60.598	7,464.84	63.7642	7,464.84	59.9455	7,464.84	60.5855	7,464.84	51.042
7,727.05	87.7609	7,727.05	86.9098	7,727.05	87.6855	7,727.05	85.2299	7,727.05	85.8986	7,727.05	82.6218	7,727.05	82.7601	7,727.05	80.5905	7,727.05	80.955	7,727.05	78.8508	7,727.05	79.724	7,727.05	77.3469	7,727.05	77.1606	7,727.05	73.9006	7,727.05	75.7765	7,727.05	71.4549	7,727.05	72.8796	7,727.05	68.4747	7,727.05	70.7589	7,727.05	66.5168	7,727.05	67.6114	7,727.05	64.7427	7,727.05	66.2586	7,727.05	63.0729	7,727.05	62.2057	7,727.05	59.3358	7,727.05	58.8163	7,727.05	53.4295	7,727.05	57.8491	7,727.05	61.305	7,727.05	62.2412	7,727.05	62.8686	7,727.05	64.8466	7,727.05	58.5609	7,727.05	60.8265	7,727.05	55.196
7,999.51	87.3709	7,999.51	86.7338	7,999.51	87.3183	7,999.51	85.2977	7,999.51	86.0317	7,999.51	82.3932	7,999.51	83.2305	7,999.51	81.0118	7,999.51	80.4975	7,999.51	79.5551	7,999.51	78.9217	7,999.51	76.6368	7,999.51	77.1119	7,999.51	73.5983	7,999.51	74.4535	7,999.51	71.4959	7,999.51	73.2787	7,999.51	68.9084	7,999.51	69.6894	7,999.51	66.0327	7,999.51	67.1804	7,999.51	63.7063	7,999.51	62.0516	7,999.51	62.1149	7,999.51	58.8197	7,999.51	61.8411	7,999.51	60.2336	7,999.51	49.8154	7,999.51	57.2992	7,999.51	54.9964	7,999.51	59.9977	7,999.51	62.7494	7,999.51	63.9733	7,999.51	49.7641	7,999.51	57.2062	7,999.51	48.345
8,282.23	87.3936	8,282.23	87.0117	8,282.23	87.2508	8,282.23	85.4146	8,282.23	86.0531	8,282.23	82.8045	8,282.23	83.4065	8,282.23	81.2025	8,282.23	81.2542	8,282.23	78.9468	8,282.23	79.386	8,282.23	76.8806	8,282.23	77.1325	8,282.23	74.3927	8,282.23	74.4282	8,282.23	71.3771	8,282.23	71.5857	8,282.23	68.7779	8,282.23	67.6192	8,282.23	65.2246	8,282.23	66.938	8,282.23	64.1687	8,282.23	63.1371	8,282.23	60.5756	8,282.23	63.1822	8,282.23	59.2802	8,282.23	58.8153	8,282.23	55.9982	8,282.23	50.3418	8,282.23	57.7642	8,282.23	58.3812	8,282.23	61.6759	8,282.23	61.9391	8,282.23	55.6521	8,282.23	59.44	8,282.23	54.4577
8,573.73	87.8645	8,573.73	87.184	8,573.73	87.5545	8,573.73	85.9779	8,573.73	86.4351	8,573.73	83.4238	8,573.73	84.0725	8,573.73	81.2116	8,573.73	81.7089	8,573.73	79.2281	8,573.73	79.176	8,573.73	76.7157	8,573.73	77.13	8,573.73	75.364	8,573.73	74.1087	8,573.73	71.2144	8,573.73	72.2381	8,573.73	68.5257	8,573.73	67.6636	8,573.73	65.9179	8,573.73	64.9358	8,573.73	63.2604	8,573.73	62.8822	8,573.73	59.4232	8,573.73	60.0012	8,573.73	56.5735	8,573.73	50.1821	8,573.73	48.0739	8,573.73	54.367	8,573.73	60.1215	8,573.73	54.4638	8,573.73	61.8589	8,573.73	61.5547	8,573.73	52.4012	8,573.73	55.2825	8,573.73	46.1821
8,876.95	87.807	8,876.95	87.3725	8,876.95	87.7523	8,876.95	86.3576	8,876.95	86.5992	8,876.95	83.8893	8,876.95	84.057	8,876.95	81.3446	8,876.95	81.5183	8,876.95	79.3545	8,876.95	79.1166	8,876.95	77.3839	8,876.95	76.574	8,876.95	74.0437	8,876.95	74.2247	8,876.95	71.0131	8,876.95	70.745	8,876.95	69.1169	8,876.95	67.8024	8,876.95	65.7008	8,876.95	65.1183	8,876.95	63.9699	8,876.95	61.1923	8,876.95	61.252	8,876.95	63.0495	8,876.95	57.0169	8,876.95	50.0546	8,876.95	52.5	8,876.95	51.0078	8,876.95	58.485	8,876.95	55.0428	8,876.95	59.6162	8,876.95	59.5987	8,876.95	57.0912	8,876.95	56.2534	8,876.95	50.1654
9,188.96	88.0613	9,188.96	87.5178	9,188.96	87.8817	9,188.96	86.32	9,188.96	86.3348	9,188.96	83.7742	9,188.96	84.252	9,188.96	81.3472	9,188.96	81.7846	9,188.96	79.5706	9,188.96	78.7926	9,188.96	77.1094	9,188.96	76.7088	9,188.96	73.7707	9,188.96	74.4995	9,188.96	71.7738	9,188.96	71.6894	9,188.96	67.8278	9,188.96	67.7108	9,188.96	64.3721	9,188.96	63.0116	9,188.96	63.2324	9,188.96	62.537	9,188.96	62.8767	9,188.96	59.2186	9,188.96	60.8769	9,188.96	56.7076	9,188.96	54.7757	9,188.96	53.4675	9,188.96	57.4667	9,188.96	55.285	9,188.96	60.7012	9,188.96	60.8051	9,188.96	55.5408	9,188.96	55.284	9,188.96	46.9468
9,514.16	87.7871	9,514.16	87.2256	9,514.16	87.6089	9,514.16	86.3926	9,514.16	86.3742	9,514.16	83.7269	9,514.16	84.2674	9,514.16	81.4337	9,514.16	81.5075	9,514.16	79.2019	9,514.16	78.9149	9,514.16	77.3238	9,514.16	76.5134	9,514.16	73.7136	9,514.16	74.0411	9,514.16	70.8147	9,514.16	70.9232	9,514.16	68.6608	9,514.16	67.3143	9,514.16	63.9767	9,514.16	63.3854	9,514.16	62.7426	9,514.16	62.8173	9,514.16	60.6903	9,514.16	59.1581	9,514.16	58.8279	9,514.16	56.7401	9,514.16	54.1643	9,514.16	54.0124	9,514.16	54.8662	9,514.16	56.64	9,514.16	59.5998	9,514.16	59.7184	9,514.16	53.5733	9,514.16	51.7456	9,514.16	51.5566
9,849.61	87.926	9,849.61	87.3057	9,849.61	87.7861	9,849.61	86.1888	9,849.61	86.2749	9,849.61	83.58	9,849.61	84.13	9,849.61	80.9444	9,849.61	81.3475	9,849.61	79.147	9,849.61	78.6199	9,849.61	76.6036	9,849.61	76.1221	9,849.61	74.3806	9,849.61	73.0736	9,849.61	70.3097	9,849.61	70.8571	9,849.61	68.1211	9,849.61	66.2387	9,849.61	64.2019	9,849.61	63.9575	9,849.61	62.752	9,849.61	61.1379	9,849.61	59.5005	9,849.61	59.3235	9,849.61	53.6638	9,849.61	54.1798	9,849.61	53.1169	9,849.61	52.616	9,849.61	56.7783	9,849.61	55.0175	9,849.61	57.9187	9,849.61	60.6512	9,849.61	52.308	9,849.61	49.862	9,849.61	50.3688
10,196.8	88.0963	10,196.8	87.4286	10,196.8	87.7505	10,196.8	86.2884	10,196.8	86.4295	10,196.8	83.5513	10,196.8	84.0442	10,196.8	80.8626	10,196.8	81.2405	10,196.8	78.5948	10,196.8	78.2131	10,196.8	76.8104	10,196.8	75.7094	10,196.8	73.5998	10,196.8	72.2932	10,196.8	70.5964	10,196.8	69.5193	10,196.8	67.0647	10,196.8	66.627	10,196.8	64.0063	10,196.8	63.2587	10,196.8	62.4742	10,196.8	62.0015	10,196.8	58.125	10,196.8	59.0345	10,196.8	55.0685	10,196.8	54.352	10,196.8	51.4308	10,196.8	53.0312	10,196.8	55.5438	10,196.8	53.3647	10,196.8	56.5229	10,196.8	59.6652	10,196.8	53.8845	10,196.8	52.5771	10,196.8	52.2525
10,555.7	88.3139	10,555.7	87.4204	10,555.7	87.8316	10,555.7	86.142	10,555.7	86.4314	10,555.7	83.2007	10,555.7	84.0219	10,555.7	80.7343	10,555.7	80.7622	10,555.7	78.601	10,555.7	78.0314	10,555.7	76.2489	10,555.7	75.2125	10,555.7	73.2986	10,555.7	72.7346	10,555.7	70.4029	10,555.7	70.0936	10,555.7	67.8693	10,555.7	67.3488	10,555.7	64.9917	10,555.7	64.1082	10,555.7	63.2442	10,555.7	61.7566	10,555.7	58.8256	10,555.7	58.1672	10,555.7	57.767	10,555.7	57.9269	10,555.7	55.7725	10,555.7	55.0812	10,555.7	56.6917	10,555.7	53.462	10,555.7	56.9471	10,555.7	59.3393	10,555.7	54.0097	10,555.7	51.8174	10,555.7	51.3907
10,927.7	88.0763	10,927.7	87.3025	10,927.7	87.594	10,927.7	86.0418	10,927.7	86.1432	10,927.7	83.077	10,927.7	83.6383	10,927.7	80.6928	10,927.7	80.3082	10,927.7	78.2181	10,927.7	77.7812	10,927.7	76.5695	10,927.7	75.1816	10,927.7	74.0637	10,927.7	73.2866	10,927.7	70.9035	10,927.7	71.0365	10,927.7	68.475	10,927.7	67.1953	10,927.7	65.463	10,927.7	64.0896	10,927.7	63.0082	10,927.7	62.1986	10,927.7	58.5598	10,927.7	59.9197	10,927.7	60.2715	10,927.7	57.7318	10,927.7	57.0205	10,927.7	54.4475	10,927.7	55.7909	10,927.7	53.5374	10,927.7	58.5072	10,927.7	59.641	10,927.7	52.659	10,927.7	47.5614	10,927.7	47.4028
11,313	87.8683	11,313	86.8192	11,313	87.4926	11,313	85.7416	11,313	85.9071	11,313	82.5566	11,313	83.1568	11,313	80.3883	11,313	80.3398	11,313	78.6222	11,313	77.1016	11,313	76.8946	11,313	75.8718	11,313	74.3874	11,313	74.3542	11,313	71.7469	11,313	71.6376	11,313	69.0755	11,313	68.9722	11,313	65.8501	11,313	64.5234	11,313	61.7039	11,313	63.1508	11,313	59.8891	11,313	60.2499	11,313	61.1948	11,313	60.3406	11,313	57.935	11,313	56.0381	11,313	58.1737	11,313	52.2987	11,313	58.6836	11,313	56.7348	11,313	52.4508	11,313	48.0948	11,313	51.5107
11,712.9	87.6046	11,712.9	86.868	11,712.9	87.0418	11,712.9	85.1919	11,712.9	85.6675	11,712.9	82.539	11,712.9	83.0414	11,712.9	80.4386	11,712.9	80.353	11,712.9	78.9597	11,712.9	77.9636	11,712.9	77.4645	11,712.9	76.335	11,712.9	75.9932	11,712.9	74.7325	11,712.9	72.3346	11,712.9	72.0218	11,712.9	69.8306	11,712.9	69.4192	11,712.9	66.5676	11,712.9	66.4128	11,712.9	63.6021	11,712.9	63.162	11,712.9	60.5928	11,712.9	59.956	11,712.9	59.3656	11,712.9	60.4784	11,712.9	58.2352	11,712.9	55.6862	11,712.9	57.3787	11,712.9	54.2208	11,712.9	57.3451	11,712.9	59.5156	11,712.9	54.2689	11,712.9	48.0044	11,712.9	52.3394
12,126	86.7631	12,126	86.211	12,126	86.2427	12,126	84.6098	12,126	84.6783	12,126	83.0098	12,126	82.6435	12,126	80.9998	12,126	80.3478	12,126	79.7386	12,126	78.5955	12,126	78.808	12,126	77.7443	12,126	76.484	12,126	75.9708	12,126	73.5918	12,126	73.2588	12,126	70.7133	12,126	69.6554	12,126	66.5399	12,126	67.249	12,126	64.5404	12,126	63.3064	12,126	61.3781	12,126	62.5708	12,126	62.5774	12,126	62.1788	12,126	58.7866	12,126	57.2656	12,126	57.2784	12,126	54.1659	12,126	58.4358	12,126	59.7883	12,126	53.8335	12,126	45.0387	12,126	55.3742
12,553.7	85.3476	12,553.7	85.0286	12,553.7	85.2858	12,553.7	84.5807	12,553.7	83.7933	12,553.7	83.9261	12,553.7	82.8328	12,553.7	81.8959	12,553.7	80.8646	12,553.7	81.1609	12,553.7	79.5227	12,553.7	80.2399	12,553.7	78.9453	12,553.7	78.3409	12,553.7	77.6843	12,553.7	73.8965	12,553.7	74.7148	12,553.7	71.9002	12,553.7	71.1098	12,553.7	67.6535	12,553.7	66.3099	12,553.7	64.5225	12,553.7	66.0386	12,553.7	63.2769	12,553.7	64.1801	12,553.7	63.6097	12,553.7	61.2064	12,553.7	57.4801	12,553.7	57.8823	12,553.7	56.8299	12,553.7	50.5869	12,553.7	59.4633	12,553.7	60.2657	12,553.7	54.5943	12,553.7	45.3214	12,553.7	55.1986
12,996.1	85.1992	12,996.1	85.5371	12,996.1	85.4685	12,996.1	85.4289	12,996.1	84.8681	12,996.1	84.6296	12,996.1	84.9446	12,996.1	82.9462	12,996.1	83.0277	12,996.1	81.62	12,996.1	81.1336	12,996.1	80.5433	12,996.1	80.2141	12,996.1	78.1062	12,996.1	78.5285	12,996.1	74.3936	12,996.1	74.783	12,996.1	71.1549	12,996.1	71.2618	12,996.1	66.6851	12,996.1	66.7874	12,996.1	62.2478	12,996.1	65.4284	12,996.1	62.4738	12,996.1	63.721	12,996.1	62.082	12,996.1	60.5604	12,996.1	55.6587	12,996.1	57.9789	12,996.1	57.9334	12,996.1	51.0114	12,996.1	58.2107	12,996.1	56.3182	12,996.1	55.8396	12,996.1	51.546	12,996.1	54.8794
13,454.6	86.4579	13,454.6	86.8603	13,454.6	86.6731	13,454.6	86.7676	13,454.6	86.3021	13,454.6	85.6824	13,454.6	85.7528	13,454.6	84.0076	13,454.6	83.8217	13,454.6	82.321	13,454.6	81.4607	13,454.6	81.1575	13,454.6	80.6813	13,454.6	78.5095	13,454.6	78.4481	13,454.6	74.4084	13,454.6	75.1973	13,454.6	70.7146	13,454.6	70.772	13,454.6	65.3596	13,454.6	66.8108	13,454.6	63.869	13,454.6	64.9819	13,454.6	62.3571	13,454.6	62.7537	13,454.6	61.9547	13,454.6	57.0146	13,454.6	52.0263	13,454.6	57.463	13,454.6	56.6497	13,454.6	47.9324	13,454.6	56.128	13,454.6	55.5405	13,454.6	52.8677	13,454.6	50.1465	13,454.6	53.0526
13,929.2	86.0823	13,929.2	86.7001	13,929.2	86.3107	13,929.2	87.1479	13,929.2	86.4178	13,929.2	86.2087	13,929.2	86.1067	13,929.2	84.7893	13,929.2	84.8919	13,929.2	83.0787	13,929.2	82.7824	13,929.2	81.5117	13,929.2	81.3308	13,929.2	78.4296	13,929.2	78.9238	13,929.2	73.8701	13,929.2	75.6726	13,929.2	70.4242	13,929.2	70.7193	13,929.2	65.5949	13,929.2	66.9647	13,929.2	63.2817	13,929.2	65.151	13,929.2	61.4042	13,929.2	62.8473	13,929.2	62.8488	13,929.2	57.6848	13,929.2	53.6914	13,929.2	55.773	13,929.2	56.142	13,929.2	50.0531	13,929.2	56.3399	13,929.2	55.5743	13,929.2	53.0814	13,929.2	48.0425	13,929.2	55.357
14,419.9	85.3756	14,419.9	85.922	14,419.9	85.356	14,419.9	86.676	14,419.9	86.0004	14,419.9	86.2937	14,419.9	86.2438	14,419.9	84.6879	14,419.9	85.1716	14,419.9	82.4489	14,419.9	82.8753	14,419.9	80.2426	14,419.9	80.8311	14,419.9	76.9118	14,419.9	77.7956	14,419.9	72.9319	14,419.9	74.2429	14,419.9	68.3646	14,419.9	69.6324	14,419.9	64.4695	14,419.9	66.0115	14,419.9	61.2824	14,419.9	64.1785	14,419.9	58.8829	14,419.9	62.7597	14,419.9	61.9048	14,419.9	57.3193	14,419.9	54.1456	14,419.9	56.924	14,419.9	50.4423	14,419.9	49.6369	14,419.9	52.6759	14,419.9	54.7172	14,419.9	52.4068	14,419.9	49.4213	14,419.9	55.3701
14,928.2	85.0091	14,928.2	85.329	14,928.2	84.9771	14,928.2	85.9018	14,928.2	85.2199	14,928.2	85.1071	14,928.2	84.8547	14,928.2	83.1332	14,928.2	83.9159	14,928.2	80.3695	14,928.2	81.3783	14,928.2	77.4777	14,928.2	78.3543	14,928.2	73.5748	14,928.2	74.9078	14,928.2	69.6626	14,928.2	70.5334	14,928.2	64.1933	14,928.2	65.7197	14,928.2	61.4814	14,928.2	62.8318	14,928.2	55.1722	14,928.2	60.1252	14,928.2	57.4143	14,928.2	58.8188	14,928.2	57.0163	14,928.2	52.1124	14,928.2	47.9861	14,928.2	55.0041	14,928.2	49.6542	14,928.2	41.4756	14,928.2	49.0792	14,928.2	51.2847	14,928.2	49.2468	14,928.2	42.6478	14,928.2	51.5367
15,455.6	85.4918	15,455.6	85.3069	15,455.6	85.184	15,455.6	84.7356	15,455.6	84.4697	15,455.6	83.0221	15,455.6	83.3687	15,455.6	80.4524	15,455.6	81.6068	15,455.6	76.9766	15,455.6	78.5121	15,455.6	73.2036	15,455.6	75.0073	15,455.6	67.9843	15,455.6	70.8468	15,455.6	63.9776	15,455.6	67.3246	15,455.6	59.7992	15,455.6	62.0826	15,455.6	55.0647	15,455.6	58.5636	15,455.6	47.3226	15,455.6	56.3324	15,455.6	50.5663	15,455.6	54.8537	15,455.6	52.0173	15,455.6	48.7068	15,455.6	44.045	15,455.6	49.519	15,455.6	42.4456	15,455.6	41.3192	15,455.6	43.8983	15,455.6	43.0506	15,455.6	44.8464	15,455.6	40.8618	15,455.6	44.0861
16,000.5	85.486	16,000.5	85.0678	16,000.5	85.0055	16,000.5	83.5274	16,000.5	83.495	16,000.5	80.7024	16,000.5	81.2974	16,000.5	77.1215	16,000.5	78.8531	16,000.5	72.253	16,000.5	75.0389	16,000.5	66.4299	16,000.5	70.841	16,000.5	59.4094	16,000.5	66.5433	16,000.5	53.9454	16,000.5	62.0327	16,000.5	48.2652	16,000.5	56.3033	16,000.5	39.2169	16,000.5	53.694	16,000.5	33.6365	16,000.5	50.9168	16,000.5	39.349	16,000.5	48.1113	16,000.5	21.9603	16,000.5	45.5749	16,000.5	31.4676	16,000.5	45.5991	16,000.5	28.1398	16,000.5	32.0736	16,000.5	34.6079	16,000.5	39.2625	16,000.5	39.9923	16,000.5	36.1585	16,000.5	37.0407
16,564.5	85.2394	16,564.5	84.6283	16,564.5	84.6548	16,564.5	82.3853	16,564.5	82.4905	16,564.5	78.1992	16,564.5	79.2947	16,564.5	73.0363	16,564.5	75.7743	16,564.5	65.7751	16,564.5	71.4571	16,564.5	56.8651	16,564.5	66.9967	16,564.5	49.2129	16,564.5	63.5738	16,564.5	48.0748	16,564.5	59.8099	16,564.5	43.6272	16,564.5	54.0954	16,564.5	43.5093	16,564.5	49.818	16,564.5	43.0523	16,564.5	49.1381	16,564.5	37.2158	16,564.5	44.3448	16,564.5	39.9524	16,564.5	44.1766	16,564.5	38.4018	16,564.5	41.1338	16,564.5	31.9157	16,564.5	27.5022	16,564.5	23.646	16,564.5	43.2706	16,564.5	38.1696	16,564.5	36.2114	16,564.5	36.9421
17,148.9	85.0314	17,148.9	84.2154	17,148.9	84.2955	17,148.9	81.3493	17,148.9	81.5377	17,148.9	75.888	17,148.9	77.1804	17,148.9	67.3131	17,148.9	72.1617	17,148.9	51.2104	17,148.9	67.6631	17,148.9	57.5908	17,148.9	64.1905	17,148.9	57.3196	17,148.9	62.9532	17,148.9	55.984	17,148.9	56.6493	17,148.9	53.503	17,148.9	53.4214	17,148.9	49.4137	17,148.9	50.7384	17,148.9	47.5346	17,148.9	49.3317	17,148.9	45.1139	17,148.9	43.2079	17,148.9	45.4247	17,148.9	43.1712	17,148.9	39.7455	17,148.9	38.4738	17,148.9	30.2912	17,148.9	38.7965	17,148.9	27.4925	17,148.9	43.8698	17,148.9	31.9119	17,148.9	36.7986	17,148.9	26.1915
17,752.4	84.9179	17,752.4	83.8953	17,752.4	84.0393	17,752.4	80.2536	17,752.4	80.8225	17,752.4	73.967	17,752.4	75.2155	17,752.4	59.9997	17,752.4	68.1376	17,752.4	59.3622	17,752.4	63.3299	17,752.4	62.9984	17,752.4	61.3242	17,752.4	62.7581	17,752.4	59.2824	17,752.4	58.1662	17,752.4	57.1565	17,752.4	56.7303	17,752.4	51.243	17,752.4	51.6563	17,752.4	48.7936	17,752.4	50.4982	17,752.4	49.2519	17,752.4	46.5507	17,752.4	34.9257	17,752.4	45.2641	17,752.4	41.677	17,752.4	37.6851	17,752.4	39.7403	17,752.4	24.2638	17,752.4	37.4391	17,752.4	32.176	17,752.4	44.9374	17,752.4	18.6225	17,752.4	38.5974	17,752.4	30.2209
18,379.4	84.7443	18,379.4	83.509	18,379.4	83.6007	18,379.4	79.3358	18,379.4	79.6804	18,379.4	73.0208	18,379.4	71.8953	18,379.4	66.8537	18,379.4	64.1523	18,379.4	65.6013	18,379.4	59.8423	18,379.4	64.4884	18,379.4	58.5563	18,379.4	63.0854	18,379.4	58.4971	18,379.4	58.3931	18,379.4	52.8459	18,379.4	56.2357	18,379.4	50.5925	18,379.4	49.1047	18,379.4	48.424	18,379.4	51.5484	18,379.4	47.9347	18,379.4	46.9162	18,379.4	39.8538	18,379.4	45.9453	18,379.4	30.9525	18,379.4	35.6004	18,379.4	34.7887	18,379.4	36.9499	18,379.4	24.9058	18,379.4	35.5288	18,379.4	44.8294	18,379.4	28.1525	18,379.4	37.3909	18,379.4	35.8727
19,026.9	83.9835	19,026.9	82.2578	19,026.9	82.4606	19,026.9	78.2115	19,026.9	77.7612	19,026.9	73.6975	19,026.9	68.6749	19,026.9	69.8983	19,026.9	61.4395	19,026.9	64.7449	19,026.9	65.9672	19,026.9	59.1998	19,026.9	65.8894	19,026.9	57.5905	19,026.9	65.8907	19,026.9	54.6052	19,026.9	65.1654	19,026.9	53.0106	19,026.9	60.6321	19,026.9	47.5464	19,026.9	55.3925	19,026.9	45.8759	19,026.9	54.3759	19,026.9	41.6545	19,026.9	51.1083	19,026.9	46.1231	19,026.9	43.0016	19,026.9	39.1686	19,026.9	46.1048	19,026.9	41.9993	19,026.9	42.4153	19,026.9	36.4938	19,026.9	47.983	19,026.9	36.1216	19,026.9	42.9505	19,026.9	45.3946
19,697.8	82.8641	19,697.8	81.1701	19,697.8	81.319	19,697.8	79.1738	19,697.8	76.725	19,697.8	76.394	19,697.8	69.8079	19,697.8	72.4686	19,697.8	62.1836	19,697.8	65.0726	19,697.8	69.9907	19,697.8	64.7536	19,697.8	71.2395	19,697.8	66.6956	19,697.8	71.9408	19,697.8	64.4108	19,697.8	69.3333	19,697.8	61.1825	19,697.8	64.9782	19,697.8	56.5768	19,697.8	59.6053	19,697.8	56.1489	19,697.8	57.4343	19,697.8	49.4497	19,697.8	56.3104	19,697.8	49.8719	19,697.8	47.1437	19,697.8	36.1138	19,697.8	50.0283	19,697.8	44.2914	19,697.8	50.7874	19,697.8	38.8574	19,697.8	52.1968	19,697.8	49.6706	19,697.8	48.1188	19,697.8	54.3845
19,999.5	81.7527	19,999.5	81.0681	19,999.5	80.62	19,999.5	79.7922	19,999.5	76.7152	19,999.5	77.8754	19,999.5	70.3527	19,999.5	73.9096	19,999.5	63.6582	19,999.5	65.6018	19,999.5	69.8072	19,999.5	67.4344	19,999.5	72.3003	19,999.5	67.7919	19,999.5	73.5302	19,999.5	66.3094	19,999.5	69.4831	19,999.5	64.0199	19,999.5	65.1894	19,999.5	57.5262	19,999.5	59.9029	19,999.5	59.4147	19,999.5	59.6438	19,999.5	51.9968	19,999.5	57.6189	19,999.5	54.1899	19,999.5	51.8675	19,999.5	37.7376	19,999.5	46.6265	19,999.5	40.853	19,999.5	53.5929	19,999.5	40.5437	19,999.5	51.1214	19,999.5	45.6633	19,999.5	52.4837	19,999.5	52.0835
