"SPL Vertical"																																																																							
"On-Axis"		"10°"		"-10°"		"20°"		"-20°"		"30°"		"-30°"		"40°"		"-40°"		"50°"		"-50°"		"60°"		"-60°"		"70°"		"-70°"		"80°"		"-80°"		"90°"		"-90°"		"100°"		"-100°"		"110°"		"-110°"		"120°"		"-120°"		"130°"		"-130°"		"140°"		"-140°"		"150°"		"-150°"		"160°"		"-160°"		"170°"		"-170°"		"180°"	
"Frequency / Hz"	"Sound Pressure Level / dB (re 20 µPa/V)  [2.83  V @ 1. m]"	"Frequency / Hz"	"Sound Pressure Level / dB (re 20 µPa/V)  [2.83  V @ 1. m]"	"Frequency / Hz"	"Sound Pressure Level / dB (re 20 µPa/V)  [2.83  V @ 1. m]"	"Frequency / Hz"	"Sound Pressure Level / dB (re 20 µPa/V)  [2.83  V @ 1. m]"	"Frequency / Hz"	"Sound Pressure Level / dB (re 20 µPa/V)  [2.83  V @ 1. m]"	"Frequency / Hz"	"Sound Pressure Level / dB (re 20 µPa/V)  [2.83  V @ 1. m]"	"Frequency / Hz"	"Sound Pressure Level / dB (re 20 µPa/V)  [2.83  V @ 1. m]"	"Frequency / Hz"	"Sound Pressure Level / dB (re 20 µPa/V)  [2.83  V @ 1. m]"	"Frequency / Hz"	"Sound Pressure Level / dB (re 20 µPa/V)  [2.83  V @ 1. m]"	"Frequency / Hz"	"Sound Pressure Level / dB (re 20 µPa/V)  [2.83  V @ 1. m]"	"Frequency / Hz"	"Sound Pressure Level / dB (re 20 µPa/V)  [2.83  V @ 1. m]"	"Frequency / Hz"	"Sound Pressure Level / dB (re 20 µPa/V)  [2.83  V @ 1. m]"	"Frequency / Hz"	"Sound Pressure Level / dB (re 20 µPa/V)  [2.83  V @ 1. m]"	"Frequency / Hz"	"Sound Pressure Level / dB (re 20 µPa/V)  [2.83  V @ 1. m]"	"Frequency / Hz"	"Sound Pressure Level / dB (re 20 µPa/V)  [2.83  V @ 1. m]"	"Frequency / Hz"	"Sound Pressure Level / dB (re 20 µPa/V)  [2.83  V @ 1. m]"	"Frequency / Hz"	"Sound Pressure Level / dB (re 20 µPa/V)  [2.83  V @ 1. m]"	"Frequency / Hz"	"Sound Pressure Level / dB (re 20 µPa/V)  [2.83  V @ 1. m]"	"Frequency / Hz"	"Sound Pressure Level / dB (re 20 µPa/V)  [2.83  V @ 1. m]"	"Frequency / Hz"	"Sound Pressure Level / dB (re 20 µPa/V)  [2.83  V @ 1. m]"	"Frequency / Hz"	"Sound Pressure Level / dB (re 20 µPa/V)  [2.83  V @ 1. m]"	"Frequency / Hz"	"Sound Pressure Level / dB (re 20 µPa/V)  [2.83  V @ 1. m]"	"Frequency / Hz"	"Sound Pressure Level / dB (re 20 µPa/V)  [2.83  V @ 1. m]"	"Frequency / Hz"	"Sound Pressure Level / dB (re 20 µPa/V)  [2.83  V @ 1. m]"	"Frequency / Hz"	"Sound Pressure Level / dB (re 20 µPa/V)  [2.83  V @ 1. m]"	"Frequency / Hz"	"Sound Pressure Level / dB (re 20 µPa/V)  [2.83  V @ 1. m]"	"Frequency / Hz"	"Sound Pressure Level / dB (re 20 µPa/V)  [2.83  V @ 1. m]"	"Frequency / Hz"	"Sound Pressure Level / dB (re 20 µPa/V)  [2.83  V @ 1. m]"	"Frequency / Hz"	"Sound Pressure Level / dB (re 20 µPa/V)  [2.83  V @ 1. m]"	"Frequency / Hz"	"Sound Pressure Level / dB (re 20 µPa/V)  [2.83  V @ 1. m]"	"Frequency / Hz"	"Sound Pressure Level / dB (re 20 µPa/V)  [2.83  V @ 1. m]"	"Frequency / Hz"	"Sound Pressure Level / dB (re 20 µPa/V)  [2.83  V @ 1. m]"	"Frequency / Hz"	"Sound Pressure Level / dB (re 20 µPa/V)  [2.83  V @ 1. m]"	"Frequency / Hz"	"Sound Pressure Level / dB (re 20 µPa/V)  [2.83  V @ 1. m]"	"Frequency / Hz"	"Sound Pressure Level / dB (re 20 µPa/V)  [2.83  V @ 1. m]"	"Frequency / Hz"	"Sound Pressure Level / dB (re 20 µPa/V)  [2.83  V @ 1. m]"
20.5078	57.6262	20.5078	57.5187	20.5078	57.687	20.5078	57.3952	20.5078	57.6778	20.5078	57.2937	20.5078	57.5832	20.5078	57.2567	20.5078	57.3982	20.5078	57.3269	20.5078	57.1326	20.5078	57.538	20.5078	56.82	20.5078	57.9049	20.5078	56.5292	20.5078	58.4179	20.5078	56.3708	20.5078	59.045	20.5078	56.4743	20.5078	59.741	20.5078	56.9225	20.5078	60.4575	20.5078	57.6894	20.5078	61.1494	20.5078	58.6549	20.5078	61.7774	20.5078	59.6776	20.5078	62.3079	20.5078	60.6459	20.5078	62.7122	20.5078	61.4886	20.5078	62.966	20.5078	62.1649	20.5078	63.0498	20.5078	62.6542	20.5078	62.9487
21.9727	58.6036	21.9727	58.2798	21.9727	58.8035	21.9727	57.8427	21.9727	58.8718	21.9727	57.3114	21.9727	58.801	21.9727	56.7241	21.9727	58.5831	21.9727	56.1538	21.9727	58.2122	21.9727	55.7211	21.9727	57.6893	21.9727	55.5797	21.9727	57.0366	21.9727	55.8435	21.9727	56.3246	21.9727	56.5013	21.9727	55.7132	21.9727	57.4218	21.9727	55.4599	21.9727	58.4421	21.9727	55.7862	21.9727	59.4346	21.9727	56.661	21.9727	60.3184	21.9727	57.8256	21.9727	61.0451	21.9727	59.0167	21.9727	61.5849	21.9727	60.0744	21.9727	61.9174	21.9727	60.9239	21.9727	62.0273	21.9727	61.5359	21.9727	61.9028
23.4375	58.4802	23.4375	58.1372	23.4375	58.7089	23.4375	57.7072	23.4375	58.8062	23.4375	57.237	23.4375	58.7599	23.4375	56.8054	23.4375	58.5614	23.4375	56.53	23.4375	58.2091	23.4375	56.5443	23.4375	57.7177	23.4375	56.9324	23.4375	57.14	23.4375	57.6694	23.4375	56.6019	23.4375	58.6375	23.4375	56.3263	23.4375	59.6983	23.4375	56.558	23.4375	60.7425	23.4375	57.3602	23.4375	61.6989	23.4375	58.5417	23.4375	62.5235	23.4375	59.8359	23.4375	63.1882	23.4375	61.0543	23.4375	63.6727	23.4375	62.0999	23.4375	63.9612	23.4375	62.9305	23.4375	64.0406	23.4375	63.5312	23.4375	63.8999
24.9023	60.2453	24.9023	59.9122	24.9023	60.4612	24.9023	59.4872	24.9023	60.5443	24.9023	59.0136	24.9023	60.4842	24.9023	58.5637	24.9023	60.2746	24.9023	58.2451	24.9023	59.9157	24.9023	58.1846	24.9023	59.4229	24.9023	58.4726	24.9023	58.8448	24.9023	59.1043	24.9023	58.2935	24.9023	59.9812	24.9023	57.9677	24.9023	60.9718	24.9023	58.0965	24.9023	61.9651	24.9023	58.7675	24.9023	62.8847	24.9023	59.8331	24.9023	63.6824	24.9023	61.046	24.9023	64.3269	24.9023	62.2138	24.9023	64.7963	24.9023	63.2294	24.9023	65.0739	24.9023	64.0432	24.9023	65.1462	24.9023	64.6359	24.9023	65.0026
26.3672	60.1967	26.3672	59.9243	26.3672	60.3963	26.3672	59.6235	26.3672	60.4957	26.3672	59.3617	26.3672	60.4808	26.3672	59.2286	26.3672	60.3492	26.3672	59.319	26.3672	60.1146	26.3672	59.6939	26.3672	59.8173	26.3672	60.3465	26.3672	59.5397	26.3672	61.2055	26.3672	59.4151	26.3672	62.1734	26.3672	59.5974	26.3672	63.1618	26.3672	60.1734	26.3672	64.1049	26.3672	61.0912	26.3672	64.958	26.3672	62.1979	26.3672	65.6901	26.3672	63.3352	26.3672	66.279	26.3672	64.3913	26.3672	66.707	26.3672	65.3011	26.3672	66.9597	26.3672	66.0306	26.3672	67.0254	26.3672	66.5638	26.3672	66.8952
27.832	62.4743	27.832	62.2614	27.832	62.6284	27.832	62.0222	27.832	62.703	27.832	61.8032	27.832	62.6864	27.832	61.6656	27.832	62.5764	27.832	61.677	27.832	62.3829	27.832	61.8922	27.832	62.1351	27.832	62.3299	27.832	61.8905	27.832	62.962	27.832	61.7414	27.832	63.7263	27.832	61.8016	27.832	64.5502	27.832	62.1584	27.832	65.3686	27.832	62.8151	27.832	66.13	27.832	63.6839	27.832	66.7962	27.832	64.6387	27.832	67.3383	27.832	65.5681	27.832	67.7343	27.832	66.3949	27.832	67.9669	27.832	67.0727	27.832	68.023	27.832	67.5764	27.832	67.8941
29.2969	64.1403	29.2969	63.9526	29.2969	64.2772	29.2969	63.7435	29.2969	64.3447	29.2969	63.554	29.2969	64.3326	29.2969	63.4364	29.2969	64.2402	29.2969	63.4479	29.2969	64.078	29.2969	63.6353	29.2969	63.8738	29.2969	64.0175	29.2969	63.6785	29.2969	64.5756	29.2969	63.5695	29.2969	65.2606	29.2969	63.6385	29.2969	66.0104	29.2969	63.9564	29.2969	66.7656	29.2969	64.5305	29.2969	67.4765	29.2969	65.2962	29.2969	68.1044	29.2969	66.1511	29.2969	68.6193	29.2969	66.9966	29.2969	68.9978	29.2969	67.7589	29.2969	69.2219	29.2969	68.3898	29.2969	69.2784	29.2969	68.8613	29.2969	69.1591
30.7617	65.3398	30.7617	65.1916	30.7617	65.4559	30.7617	65.0396	30.7617	65.5211	30.7617	64.922	30.7617	65.5259	30.7617	64.8838	30.7617	65.4707	30.7617	64.9698	30.7617	65.3681	30.7617	65.2124	30.7617	65.2461	30.7617	65.6197	30.7617	65.1519	30.7617	66.1714	30.7617	65.1501	30.7617	66.8256	30.7617	65.3093	30.7617	67.5311	30.7617	65.6749	30.7617	68.2382	30.7617	66.2433	30.7617	68.9042	30.7617	66.9603	30.7617	69.4941	30.7617	67.745	30.7617	69.9796	30.7617	68.5178	30.7617	70.3384	30.7617	69.2159	30.7617	70.553	30.7617	69.7957	30.7617	70.6105	30.7617	70.2298	30.7617	70.5033
32.2266	67.4483	32.2266	67.3506	32.2266	67.5293	32.2266	67.2566	32.2266	67.5799	32.2266	67.1936	32.2266	67.594	32.2266	67.1933	32.2266	67.5731	32.2266	67.287	32.2266	67.5279	32.2266	67.4987	32.2266	67.4804	32.2266	67.8375	32.2266	67.4643	32.2266	68.2936	32.2266	67.5232	32.2266	68.8405	32.2266	67.7011	32.2266	69.4413	32.2266	68.0273	32.2266	70.0559	32.2266	68.5018	32.2266	70.6459	32.2266	69.092	32.2266	71.1772	32.2266	69.7436	32.2266	71.6211	32.2266	70.3964	32.2266	71.9537	32.2266	70.9966	32.2266	72.1563	32.2266	71.5024	32.2266	72.2158	32.2266	71.8846	32.2266	72.1252
33.6914	68.7781	33.6914	68.6889	33.6914	68.8557	33.6914	68.6068	33.6914	68.9092	33.6914	68.5556	33.6914	68.9326	33.6914	68.5628	33.6914	68.9271	33.6914	68.6553	33.6914	68.902	33.6914	68.8534	33.6914	68.8762	33.6914	69.1652	33.6914	68.8787	33.6914	69.5834	33.6914	68.9464	33.6914	70.086	33.6914	69.1164	33.6914	70.641	33.6914	69.4143	33.6914	71.2123	33.6914	69.8422	33.6914	71.7644	33.6914	70.3749	33.6914	72.2646	33.6914	70.9668	33.6914	72.6847	33.6914	71.5648	33.6914	73.0009	33.6914	72.119	33.6914	73.1948	33.6914	72.589	33.6914	73.2534	33.6914	72.9456	33.6914	73.1701
35.1562	70.2259	35.1562	70.1557	35.1562	70.2901	35.1562	70.0949	35.1562	70.338	35.1562	70.0633	35.1562	70.3644	35.1562	70.0829	35.1562	70.3703	35.1562	70.1755	35.1562	70.3636	35.1562	70.3578	35.1562	70.3601	35.1562	70.6377	35.1562	70.3834	35.1562	71.0106	35.1562	70.4632	35.1562	71.4598	35.1562	70.6292	35.1562	71.9595	35.1562	70.9024	35.1562	72.4786	35.1562	71.2858	35.1562	72.9848	35.1562	71.7607	35.1562	73.4474	35.1562	72.2904	35.1562	73.8387	35.1562	72.8297	35.1562	74.1352	35.1562	73.3338	35.1562	74.3184	35.1562	73.7644	35.1562	74.3753	35.1562	74.0927	35.1562	74.2996
36.6211	71.7342	36.6211	71.6711	36.6211	71.7926	36.6211	71.6162	36.6211	71.8378	36.6211	71.5857	36.6211	71.8656	36.6211	71.5982	36.6211	71.8768	36.6211	71.6723	36.6211	71.8781	36.6211	71.8232	36.6211	71.8826	36.6211	72.0594	36.6211	71.9098	36.6211	72.3795	36.6211	71.984	36.6211	72.7716	36.6211	72.1301	36.6211	73.2148	36.6211	72.3666	36.6211	73.6821	36.6211	72.6982	36.6211	74.144	36.6211	73.1116	36.6211	74.571	36.6211	73.5777	36.6211	74.9361	36.6211	74.0574	36.6211	75.2156	36.6211	74.5102	36.6211	75.391	36.6211	74.8997	36.6211	75.4492	36.6211	75.1975	36.6211	75.3841
38.0859	72.7861	38.0859	72.7173	38.0859	72.8494	38.0859	72.6556	38.0859	72.8989	38.0859	72.6172	38.0859	72.9313	38.0859	72.6211	38.0859	72.9482	38.0859	72.6862	38.0859	72.9566	38.0859	72.8282	38.0859	72.9696	38.0859	73.0556	38.0859	73.0058	38.0859	73.3672	38.0859	73.0876	38.0859	73.7511	38.0859	73.2375	38.0859	74.1866	38.0859	73.4717	38.0859	74.6468	38.0859	73.7935	38.0859	75.1025	38.0859	74.1904	38.0859	75.5248	38.0859	74.6353	38.0859	75.8868	38.0859	75.0922	38.0859	76.1656	38.0859	75.523	38.0859	76.3428	38.0859	75.893	38.0859	76.4059	38.0859	76.1749	38.0859	76.3493
39.5508	73.8579	39.5508	73.817	39.5508	73.9109	39.5508	73.7985	39.5508	73.9684	39.5508	73.8142	39.5508	74.0264	39.5508	73.8768	39.5508	74.0846	39.5508	73.9973	39.5508	74.1471	39.5508	74.1835	39.5508	74.2222	39.5508	74.4379	39.5508	74.3222	39.5508	74.7562	39.5508	74.4617	39.5508	75.1278	39.5508	74.6547	39.5508	75.5359	39.5508	74.9103	39.5508	75.9597	39.5508	75.2293	39.5508	76.3759	39.5508	75.6013	39.5508	76.7607	39.5508	76.0057	39.5508	77.0913	39.5508	76.4146	39.5508	77.3471	39.5508	76.7974	39.5508	77.5116	39.5508	77.1253	39.5508	77.5732	39.5508	77.3742	39.5508	77.5267
41.0156	75.2954	41.0156	75.2668	41.0156	75.3354	41.0156	75.2571	41.0156	75.3812	41.0156	75.2753	41.0156	75.4296	41.0156	75.3306	41.0156	75.48	41.0156	75.4316	41.0156	75.5354	41.0156	75.585	41.0156	75.602	41.0156	75.7939	41.0156	75.6893	41.0156	76.0568	41.0156	75.8088	41.0156	76.367	41.0156	75.9721	41.0156	76.7123	41.0156	76.1876	41.0156	77.0762	41.0156	76.4575	41.0156	77.4388	41.0156	76.7748	41.0156	77.7785	41.0156	77.1236	41.0156	78.0736	41.0156	77.4805	41.0156	78.3043	41.0156	77.8183	41.0156	78.454	41.0156	78.1103	41.0156	78.511	41.0156	78.3332	41.0156	78.47
42.4805	76.5386	42.4805	76.5	42.4805	76.585	42.4805	76.4752	42.4805	76.6349	42.4805	76.4715	42.4805	76.6858	42.4805	76.4971	42.4805	76.7374	42.4805	76.5602	42.4805	76.7917	42.4805	76.6682	42.4805	76.8534	42.4805	76.8259	42.4805	76.9299	42.4805	77.0346	42.4805	77.0302	42.4805	77.2906	42.4805	77.1639	42.4805	77.5849	42.4805	77.3389	42.4805	77.9035	42.4805	77.5582	42.4805	78.2284	42.4805	77.8178	42.4805	78.5392	42.4805	78.1059	42.4805	78.8147	42.4805	78.4034	42.4805	79.0351	42.4805	78.687	42.4805	79.1839	42.4805	78.9324	42.4805	79.2495	42.4805	79.1178	42.4805	79.2268
43.9453	77.3901	43.9453	77.3532	43.9453	77.4357	43.9453	77.3303	43.9453	77.4859	43.9453	77.3279	43.9453	77.5383	43.9453	77.353	43.9453	77.5921	43.9453	77.4126	43.9453	77.6488	43.9453	77.5127	43.9453	77.7118	43.9453	77.6574	43.9453	77.7872	43.9453	77.8477	43.9453	77.8823	43.9453	78.0805	43.9453	78.0053	43.9453	78.3479	43.9453	78.163	43.9453	78.6379	43.9453	78.3585	43.9453	78.9343	43.9453	78.5892	43.9453	79.2188	43.9453	78.8456	43.9453	79.4719	43.9453	79.1114	43.9453	79.6751	43.9453	79.3662	43.9453	79.8128	43.9453	79.5877	43.9453	79.8741	43.9453	79.7557	43.9453	79.8543
45.4102	78.245	45.4102	78.2148	45.4102	78.2821	45.4102	78.1957	45.4102	78.3228	45.4102	78.1933	45.4102	78.3654	45.4102	78.2135	45.4102	78.4096	45.4102	78.2626	45.4102	78.4567	45.4102	78.3462	45.4102	78.5102	45.4102	78.4686	45.4102	78.5752	45.4102	78.6315	45.4102	78.6583	45.4102	78.8335	45.4102	78.7667	45.4102	79.0687	45.4102	78.9066	45.4102	79.327	45.4102	79.0809	45.4102	79.5943	45.4102	79.2878	45.4102	79.8535	45.4102	79.5191	45.4102	80.0861	45.4102	79.7606	45.4102	80.2742	45.4102	79.9933	45.4102	80.4026	45.4102	80.1968	45.4102	80.4603	45.4102	80.3517	45.4102	80.4426
46.875	78.8655	46.875	78.8344	46.875	78.9048	46.875	78.8153	46.875	78.9496	46.875	78.8128	46.875	78.9983	46.875	78.8322	46.875	79.0506	46.875	78.8791	46.875	79.1074	46.875	78.9587	46.875	79.1713	46.875	79.0751	46.875	79.2463	46.875	79.2301	46.875	79.3373	46.875	79.4224	46.875	79.45	46.875	79.6468	46.875	79.5889	46.875	79.894	46.875	79.7564	46.875	80.1508	46.875	79.9507	46.875	80.4011	46.875	80.1645	46.875	80.6273	46.875	80.3856	46.875	80.8123	46.875	80.5971	46.875	80.9413	46.875	80.7805	46.875	81.0038	46.875	80.918	46.875	80.9954
48.3398	79.4654	48.3398	79.4298	48.3398	79.5113	48.3398	79.4081	48.3398	79.5648	48.3398	79.4043	48.3398	79.6239	48.3398	79.4232	48.3398	79.6877	48.3398	79.4692	48.3398	79.7565	48.3398	79.5468	48.3398	79.8316	48.3398	79.6589	48.3398	79.9156	48.3398	79.8067	48.3398	80.0122	48.3398	79.9889	48.3398	80.1255	48.3398	80.2007	48.3398	80.2589	48.3398	80.4335	48.3398	80.4142	48.3398	80.6756	48.3398	80.5901	48.3398	80.9123	48.3398	80.7806	48.3398	81.1275	48.3398	80.9756	48.3398	81.3054	48.3398	81.1608	48.3398	81.4322	48.3398	81.3199	48.3398	81.4982	48.3398	81.437	48.3398	81.4991
51.2695	80.4815	51.2695	80.4524	51.2695	80.5229	51.2695	80.4381	51.2695	80.5745	51.2695	80.4412	51.2695	80.6345	51.2695	80.4643	51.2695	80.7018	51.2695	80.5102	51.2695	80.7758	51.2695	80.581	51.2695	80.8567	51.2695	80.6785	51.2695	80.9453	51.2695	80.8031	51.2695	81.0431	51.2695	80.9542	51.2695	81.1518	51.2695	81.1284	51.2695	81.273	51.2695	81.3203	51.2695	81.4074	51.2695	81.5213	51.2695	81.5538	51.2695	81.7203	51.2695	81.7081	51.2695	81.9045	51.2695	81.8627	51.2695	82.0605	51.2695	82.0071	51.2695	82.1761	51.2695	82.1287	51.2695	82.2423	51.2695	82.2148	51.2695	82.2549
52.7344	80.8022	52.7344	80.7778	52.7344	80.8401	52.7344	80.7683	52.7344	80.8898	52.7344	80.7756	52.7344	80.95	52.7344	80.8013	52.7344	81.0194	52.7344	80.8471	52.7344	81.0971	52.7344	80.9146	52.7344	81.1824	52.7344	81.005	52.7344	81.2752	52.7344	81.1189	52.7344	81.3756	52.7344	81.2558	52.7344	81.4841	52.7344	81.4132	52.7344	81.6013	52.7344	81.5867	52.7344	81.7272	52.7344	81.7691	52.7344	81.8605	52.7344	81.9509	52.7344	81.9979	52.7344	82.1207	52.7344	82.1332	52.7344	82.2662	52.7344	82.2577	52.7344	82.3763	52.7344	82.3608	52.7344	82.4425	52.7344	82.4316	52.7344	82.4607
54.1992	81.0894	54.1992	81.0683	54.1992	81.1238	54.1992	81.0615	54.1992	81.1702	54.1992	81.0697	54.1992	81.2276	54.1992	81.094	54.1992	81.2944	54.1992	81.1351	54.1992	81.3695	54.1992	81.1941	54.1992	81.4514	54.1992	81.2716	54.1992	81.5391	54.1992	81.3684	54.1992	81.6322	54.1992	81.484	54.1992	81.7302	54.1992	81.6171	54.1992	81.8331	54.1992	81.7643	54.1992	81.9407	54.1992	81.9202	54.1992	82.0523	54.1992	82.0768	54.1992	82.1654	54.1992	82.2245	54.1992	82.2756	54.1992	82.3526	54.1992	82.3762	54.1992	82.4512	54.1992	82.4586	54.1992	82.5127	54.1992	82.5136	54.1992	82.5333
55.6641	81.424	55.6641	81.4021	55.6641	81.4561	55.6641	81.391	55.6641	81.4977	55.6641	81.3911	55.6641	81.5475	55.6641	81.403	55.6641	81.6044	55.6641	81.4273	55.6641	81.667	55.6641	81.4648	55.6641	81.7337	55.6641	81.5164	55.6641	81.8033	55.6641	81.5831	55.6641	81.8749	55.6641	81.6653	55.6641	81.9478	55.6641	81.7627	55.6641	82.0222	55.6641	81.8735	55.6641	82.0983	55.6641	81.9938	55.6641	82.1761	55.6641	82.1177	55.6641	82.2548	55.6641	82.2371	55.6641	82.3316	55.6641	82.343	55.6641	82.4019	55.6641	82.4268	55.6641	82.4589	55.6641	82.4817	55.6641	82.4954	55.6641	82.5044
58.5938	82.0418	58.5938	82.01	58.5938	82.0804	58.5938	81.9857	58.5938	82.1253	58.5938	81.9696	58.5938	82.1757	58.5938	81.9626	58.5938	82.2308	58.5938	81.9657	58.5938	82.2892	58.5938	81.9802	58.5938	82.3497	58.5938	82.0075	58.5938	82.4109	58.5938	82.0489	58.5938	82.4715	58.5938	82.1055	58.5938	82.5304	58.5938	82.1776	58.5938	82.5872	58.5938	82.2644	58.5938	82.6419	58.5938	82.3632	58.5938	82.6945	58.5938	82.4692	58.5938	82.7447	58.5938	82.5758	58.5938	82.791	58.5938	82.675	58.5938	82.8305	58.5938	82.7588	58.5938	82.8584	58.5938	82.8209	58.5938	82.8691	58.5938	82.8577
60.0586	82.1748	60.0586	82.1454	60.0586	82.214	60.0586	82.1266	60.0586	82.2624	60.0586	82.1189	60.0586	82.3188	60.0586	82.1225	60.0586	82.3821	60.0586	82.1377	60.0586	82.4506	60.0586	82.1648	60.0586	82.5228	60.0586	82.2043	60.0586	82.5965	60.0586	82.2565	60.0586	82.6699	60.0586	82.3218	60.0586	82.7414	60.0586	82.4002	60.0586	82.8098	60.0586	82.4908	60.0586	82.8742	60.0586	82.5913	60.0586	82.9341	60.0586	82.6978	60.0586	82.9888	60.0586	82.8043	60.0586	83.0369	60.0586	82.9037	60.0586	83.0756	60.0586	82.9887	60.0586	83.101	60.0586	83.053	60.0586	83.1082	60.0586	83.0931
62.9883	82.4224	62.9883	82.3992	62.9883	82.456	62.9883	82.3859	62.9883	82.5001	62.9883	82.3813	62.9883	82.5545	62.9883	82.3848	62.9883	82.6179	62.9883	82.3956	62.9883	82.6884	62.9883	82.4133	62.9883	82.7636	62.9883	82.438	62.9883	82.8402	62.9883	82.4705	62.9883	82.915	62.9883	82.5118	62.9883	82.9849	62.9883	82.5629	62.9883	83.0472	62.9883	82.6245	62.9883	83.1003	62.9883	82.6964	62.9883	83.1429	62.9883	82.7768	62.9883	83.1748	62.9883	82.862	62.9883	83.1955	62.9883	82.947	62.9883	83.2045	62.9883	83.0259	62.9883	83.2004	62.9883	83.0935	62.9883	83.1814	62.9883	83.1459
64.4531	82.5251	64.4531	82.5003	64.4531	82.5606	64.4531	82.4856	64.4531	82.6073	64.4531	82.4798	64.4531	82.6646	64.4531	82.4818	64.4531	82.7315	64.4531	82.4908	64.4531	82.8058	64.4531	82.5064	64.4531	82.8845	64.4531	82.5283	64.4531	82.9641	64.4531	82.5571	64.4531	83.0406	64.4531	82.5937	64.4531	83.1106	64.4531	82.639	64.4531	83.1709	64.4531	82.6939	64.4531	83.2193	64.4531	82.7585	64.4531	83.2548	64.4531	82.8316	64.4531	83.277	64.4531	82.9104	64.4531	83.2864	64.4531	82.9908	64.4531	83.283	64.4531	83.0678	64.4531	83.2669	64.4531	83.1366	64.4531	83.2373	64.4531	83.1938
67.3828	82.8086	67.3828	82.7811	67.3828	82.8482	67.3828	82.7647	67.3828	82.9001	67.3828	82.7581	67.3828	82.9636	67.3828	82.7596	67.3828	83.0371	67.3828	82.7677	67.3828	83.1176	67.3828	82.781	67.3828	83.2015	67.3828	82.7988	67.3828	83.2845	67.3828	82.8209	67.3828	83.3617	67.3828	82.8477	67.3828	83.429	67.3828	82.88	67.3828	83.4825	67.3828	82.9193	67.3828	83.5196	67.3828	82.9663	67.3828	83.5393	67.3828	83.0216	67.3828	83.5417	67.3828	83.0842	67.3828	83.5283	67.3828	83.152	67.3828	83.5011	67.3828	83.222	67.3828	83.462	67.3828	83.2908	67.3828	83.4129	67.3828	83.3552
68.8477	82.9386	68.8477	82.91	68.8477	82.9799	68.8477	82.893	68.8477	83.0341	68.8477	82.8862	68.8477	83.1003	68.8477	82.8877	68.8477	83.1765	68.8477	82.8954	68.8477	83.2596	68.8477	82.9078	68.8477	83.3455	68.8477	82.9235	68.8477	83.4295	68.8477	82.9421	68.8477	83.5066	68.8477	82.9639	68.8477	83.5722	68.8477	82.9896	68.8477	83.6222	68.8477	83.0209	68.8477	83.654	68.8477	83.0592	68.8477	83.6664	68.8477	83.1056	68.8477	83.6598	68.8477	83.1602	68.8477	83.636	68.8477	83.222	68.8477	83.5977	68.8477	83.2886	68.8477	83.548	68.8477	83.3574	68.8477	83.4897	68.8477	83.4253
71.7773	83.1719	71.7773	83.1441	71.7773	83.2118	71.7773	83.1273	71.7773	83.2639	71.7773	83.1197	71.7773	83.3274	71.7773	83.1193	71.7773	83.4003	71.7773	83.1237	71.7773	83.4795	71.7773	83.1308	71.7773	83.561	71.7773	83.1389	71.7773	83.6398	71.7773	83.1469	71.7773	83.7109	71.7773	83.1551	71.7773	83.7691	71.7773	83.1643	71.7773	83.81	71.7773	83.1765	71.7773	83.8305	71.7773	83.194	71.7773	83.8292	71.7773	83.2195	71.7773	83.8065	71.7773	83.2549	71.7773	83.7648	71.7773	83.3011	71.7773	83.7081	71.7773	83.3576	71.7773	83.6408	71.7773	83.4228	71.7773	83.568	71.7773	83.494
74.707	83.4373	74.707	83.4131	74.707	83.4734	74.707	83.3992	74.707	83.5217	74.707	83.3934	74.707	83.5818	74.707	83.3931	74.707	83.6516	74.707	83.3953	74.707	83.728	74.707	83.3975	74.707	83.8067	74.707	83.3975	74.707	83.8826	74.707	83.394	74.707	83.9498	74.707	83.3872	74.707	84.0027	74.707	83.3782	74.707	84.0364	74.707	83.3697	74.707	84.0472	74.707	83.3653	74.707	84.0332	74.707	83.3691	74.707	83.9952	74.707	83.3851	74.707	83.936	74.707	83.4161	74.707	83.8606	74.707	83.4633	74.707	83.7753	74.707	83.5261	74.707	83.687	74.707	83.6021
77.6367	83.6497	77.6367	83.6259	77.6367	83.6859	77.6367	83.6126	77.6367	83.7354	77.6367	83.6072	77.6367	83.7974	77.6367	83.6067	77.6367	83.8701	77.6367	83.6077	77.6367	83.9503	77.6367	83.6074	77.6367	84.0332	77.6367	83.6032	77.6367	84.1134	77.6367	83.594	77.6367	84.1844	77.6367	83.5796	77.6367	84.2401	77.6367	83.5616	77.6367	84.2747	77.6367	83.5429	77.6367	84.2839	77.6367	83.528	77.6367	84.2652	77.6367	83.522	77.6367	84.219	77.6367	83.5301	77.6367	84.1483	77.6367	83.5564	77.6367	84.0588	77.6367	83.6034	77.6367	83.958	77.6367	83.6709	77.6367	83.8544	77.6367	83.7563
79.1016	83.7159	79.1016	83.6904	79.1016	83.7541	79.1016	83.6759	79.1016	83.8057	79.1016	83.6695	79.1016	83.8701	79.1016	83.668	79.1016	83.9452	79.1016	83.668	79.1016	84.0274	79.1016	83.6662	79.1016	84.1119	79.1016	83.66	79.1016	84.193	79.1016	83.6478	79.1016	84.2641	79.1016	83.6293	79.1016	84.3188	79.1016	83.6062	79.1016	84.351	79.1016	83.5814	79.1016	84.3563	79.1016	83.5598	79.1016	84.3321	79.1016	83.547	79.1016	84.2787	79.1016	83.5489	79.1016	84.1994	79.1016	83.5707	79.1016	84.1004	79.1016	83.6156	79.1016	83.99	79.1016	83.6839	79.1016	83.8779	79.1016	83.7732
82.0312	83.9992	82.0312	83.9708	82.0312	84.0377	82.0312	83.9505	82.0312	84.0868	82.0312	83.9359	82.0312	84.1461	82.0312	83.9235	82.0312	84.2134	82.0312	83.9101	82.0312	84.2855	82.0312	83.8922	82.0312	84.3576	82.0312	83.8673	82.0312	84.4239	82.0312	83.8338	82.0312	84.4779	82.0312	83.7914	82.0312	84.5131	82.0312	83.7418	82.0312	84.5233	82.0312	83.6887	82.0312	84.5039	82.0312	83.6376	82.0312	84.4528	82.0312	83.5959	82.0312	84.3708	82.0312	83.5711	82.0312	84.2624	82.0312	83.5707	82.0312	84.1353	82.0312	83.6001	82.0312	84.0003	82.0312	83.6614	82.0312	83.869	82.0312	83.753
84.9609	84.1076	84.9609	84.0761	84.9609	84.1518	84.9609	84.0557	84.9609	84.2093	84.9609	84.0435	84.9609	84.2794	84.9609	84.0362	84.9609	84.3596	84.9609	84.03	84.9609	84.4463	84.9609	84.0211	84.9609	84.5341	84.9609	84.0064	84.9609	84.6166	84.9609	83.9837	84.9609	84.6868	84.9609	83.9522	84.9609	84.7373	84.9609	83.9132	84.9609	84.7615	84.9609	83.8702	84.9609	84.7543	84.9609	83.8288	84.9609	84.7129	84.9609	83.7964	84.9609	84.6377	84.9609	83.7811	84.9609	84.5328	84.9609	83.7906	84.9609	84.4058	84.9609	83.8305	84.9609	84.2673	84.9609	83.9026	84.9609	84.1295	84.9609	84.0046
87.8906	84.3828	87.8906	84.3491	87.8906	84.4253	87.8906	84.3228	87.8906	84.4772	87.8906	84.3012	87.8906	84.5376	87.8906	84.2809	87.8906	84.6045	87.8906	84.2582	87.8906	84.6745	87.8906	84.2296	87.8906	84.7432	87.8906	84.192	87.8906	84.8049	87.8906	84.1436	87.8906	84.8533	87.8906	84.0843	87.8906	84.8816	87.8906	84.0158	87.8906	84.8836	87.8906	83.9426	87.8906	84.8541	87.8906	83.8714	87.8906	84.7902	87.8906	83.8111	87.8906	84.6922	87.8906	83.7715	87.8906	84.5644	87.8906	83.7621	87.8906	84.4151	87.8906	83.7901	87.8906	84.256	87.8906	83.8584	87.8906	84.1011	87.8906	83.9646
90.8203	84.5817	90.8203	84.5518	90.8203	84.6198	90.8203	84.5276	90.8203	84.6669	90.8203	84.5061	90.8203	84.723	90.8203	84.4837	90.8203	84.7864	90.8203	84.4563	90.8203	84.8539	90.8203	84.4202	90.8203	84.9207	90.8203	84.3724	90.8203	84.9809	90.8203	84.311	90.8203	85.0273	90.8203	84.2359	90.8203	85.0523	90.8203	84.1494	90.8203	85.0488	90.8203	84.0565	90.8203	85.011	90.8203	83.965	90.8203	84.9357	90.8203	83.8851	90.8203	84.823	90.8203	83.8286	90.8203	84.6779	90.8203	83.8066	90.8203	84.5095	90.8203	83.828	90.8203	84.3314	90.8203	83.8966	90.8203	84.1595	90.8203	84.01
95.2148	84.8588	95.2148	84.8224	95.2148	84.9045	95.2148	84.7936	95.2148	84.9597	95.2148	84.7695	95.2148	85.0233	95.2148	84.7463	95.2148	85.0929	95.2148	84.7196	95.2148	85.1646	95.2148	84.6851	95.2148	85.2336	95.2148	84.6391	95.2148	85.2936	95.2148	84.5792	95.2148	85.3377	95.2148	84.5049	95.2148	85.3588	95.2148	84.418	95.2148	85.3501	95.2148	84.3235	95.2148	85.3059	95.2148	84.2293	95.2148	85.2235	95.2148	84.1458	95.2148	85.1033	95.2148	84.0852	95.2148	84.9505	95.2148	84.0595	95.2148	84.7748	95.2148	84.0782	95.2148	84.5901	95.2148	84.1458	95.2148	84.413	95.2148	84.2603
98.1445	85.1137	98.1445	85.0795	98.1445	85.1537	98.1445	85.0495	98.1445	85.2003	98.1445	85.021	98.1445	85.2527	98.1445	84.9904	98.1445	85.3093	98.1445	84.9536	98.1445	85.3669	98.1445	84.9064	98.1445	85.4214	98.1445	84.8454	98.1445	85.4671	98.1445	84.7682	98.1445	85.4973	98.1445	84.6747	98.1445	85.5047	98.1445	84.5671	98.1445	85.4823	98.1445	84.4507	98.1445	85.4242	98.1445	84.3343	98.1445	85.3273	98.1445	84.2292	98.1445	85.1921	98.1445	84.149	98.1445	85.024	98.1445	84.1071	98.1445	84.8336	98.1445	84.1142	98.1445	84.6359	98.1445	84.1759	98.1445	84.4488	98.1445	84.2905
101.074	85.3011	101.074	85.2755	101.074	85.329	101.074	85.2499	101.074	85.3604	101.074	85.221	101.074	85.3956	101.074	85.1847	101.074	85.4337	101.074	85.1368	101.074	85.4725	101.074	85.0731	101.074	85.5086	101.074	84.9904	101.074	85.5368	101.074	84.887	101.074	85.5508	101.074	84.7634	101.074	85.5433	101.074	84.6232	101.074	85.5069	101.074	84.4732	101.074	85.4351	101.074	84.3238	101.074	85.3242	101.074	84.1886	101.074	85.1742	101.074	84.0829	101.074	84.9903	101.074	84.0223	101.074	84.7831	101.074	84.0186	101.074	84.5688	101.074	84.0777	101.074	84.3668	101.074	84.1974
105.469	85.3675	105.469	85.334	105.469	85.4038	105.469	85.3019	105.469	85.4437	105.469	85.2693	105.469	85.4876	105.469	85.2333	105.469	85.5346	105.469	85.1908	105.469	85.5832	105.469	85.1381	105.469	85.6298	105.469	85.0718	105.469	85.6696	105.469	84.9894	105.469	85.696	105.469	84.89	105.469	85.701	105.469	84.775	105.469	85.6767	105.469	84.6493	105.469	85.6161	105.469	84.5212	105.469	85.515	105.469	84.4025	105.469	85.3731	105.469	84.3081	105.469	85.1958	105.469	84.253	105.469	84.994	105.469	84.2502	105.469	84.7845	105.469	84.3071	105.469	84.5873	105.469	84.4226
108.398	85.5991	108.398	85.5597	108.398	85.639	108.398	85.5197	108.398	85.6802	108.398	85.4772	108.398	85.7226	108.398	85.4297	108.398	85.7656	108.398	85.3742	108.398	85.8075	108.398	85.3073	108.398	85.8452	108.398	85.2258	108.398	85.874	108.398	85.1275	108.398	85.8876	108.398	85.0118	108.398	85.8786	108.398	84.8806	108.398	85.8392	108.398	84.7391	108.398	85.7628	108.398	84.5961	108.398	85.6452	108.398	84.4644	108.398	85.4867	108.398	84.3593	108.398	85.2928	108.398	84.2968	108.398	85.0752	108.398	84.2904	108.398	84.8514	108.398	84.3479	108.398	84.642	108.398	84.4684
112.793	85.8318	112.793	85.8025	112.793	85.8648	112.793	85.7747	112.793	85.9032	112.793	85.7459	112.793	85.9478	112.793	85.7127	112.793	85.9987	112.793	85.6714	112.793	86.0545	112.793	85.6182	112.793	86.1118	112.793	85.5496	112.793	86.1651	112.793	85.4632	112.793	86.2066	112.793	85.3583	112.793	86.227	112.793	85.2369	112.793	86.2165	112.793	85.1045	112.793	86.1664	112.793	84.9703	112.793	86.0709	112.793	84.8474	112.793	85.9288	112.793	84.7517	112.793	85.745	112.793	84.6994	112.793	85.5312	112.793	84.7043	112.793	85.3052	112.793	84.7736	112.793	85.0891	112.793	84.9056
117.188	85.8389	117.188	85.8051	117.188	85.8752	117.188	85.7717	117.188	85.9153	117.188	85.7365	117.188	85.9598	117.188	85.6965	117.188	86.0086	117.188	85.6488	117.188	86.0603	117.188	85.5901	117.188	86.1119	117.188	85.5178	117.188	86.1589	117.188	85.4303	117.188	86.1952	117.188	85.3279	117.188	86.2134	117.188	85.2133	117.188	86.2053	117.188	85.0927	117.188	86.1635	117.188	84.9756	117.188	86.0825	117.188	84.8745	117.188	85.9602	117.188	84.8036	117.188	85.7997	117.188	84.7764	117.188	85.6097	117.188	84.803	117.188	85.4046	117.188	84.8871	117.188	85.2029	117.188	85.0244
120.117	86.1729	120.117	86.1386	120.117	86.2084	120.117	86.1037	120.117	86.2456	120.117	86.0655	120.117	86.2838	120.117	86.0203	120.117	86.3213	120.117	85.9636	120.117	86.3549	120.117	85.891	120.117	86.3808	120.117	85.7984	120.117	86.3937	120.117	85.6831	120.117	86.3875	120.117	85.5449	120.117	86.3557	120.117	85.3865	120.117	86.2915	120.117	85.2145	120.117	86.1897	120.117	85.0401	120.117	86.0476	120.117	84.8779	120.117	85.8665	120.117	84.7455	120.117	85.6532	120.117	84.6603	120.117	85.4204	120.117	84.6368	120.117	85.186	120.117	84.6829	120.117	84.9713	120.117	84.7978
124.512	86.3577	124.512	86.3084	124.512	86.4074	124.512	86.2587	124.512	86.4571	124.512	86.2061	124.512	86.5053	124.512	86.1469	124.512	86.55	124.512	86.0767	124.512	86.5885	124.512	85.9905	124.512	86.6174	124.512	85.8842	124.512	86.6325	124.512	85.7551	124.512	86.6279	124.512	85.603	124.512	86.5969	124.512	85.4312	124.512	86.5318	124.512	85.2469	124.512	86.4259	124.512	85.0621	124.512	86.275	124.512	84.8926	124.512	86.0791	124.512	84.7574	124.512	85.8445	124.512	84.6755	124.512	85.5844	124.512	84.6625	124.512	85.3186	124.512	84.727	124.512	85.0713	124.512	84.8673
128.906	86.7197	128.906	86.6755	128.906	86.759	128.906	86.626	128.906	86.7929	128.906	86.5692	128.906	86.8205	128.906	86.5018	128.906	86.8405	128.906	86.4194	128.906	86.8513	128.906	86.3171	128.906	86.8507	128.906	86.1904	128.906	86.8352	128.906	86.0368	128.906	86.7999	128.906	85.8563	128.906	86.7382	128.906	85.6529	128.906	86.6431	128.906	85.4348	128.906	86.5086	128.906	85.2154	128.906	86.3312	128.906	85.0121	128.906	86.1123	128.906	84.8454	128.906	85.8594	128.906	84.7355	128.906	85.5869	128.906	84.699	128.906	85.3152	128.906	84.7449	128.906	85.0688	128.906	84.872
133.301	86.8538	133.301	86.8089	133.301	86.8972	133.301	86.7615	133.301	86.9396	133.301	86.7094	133.301	86.9808	133.301	86.6491	133.301	87.02	133.301	86.5763	133.301	87.0553	133.301	86.4858	133.301	87.0833	133.301	86.373	133.301	87.0983	133.301	86.2341	133.301	87.0928	133.301	86.0681	133.301	87.0572	133.301	85.8772	133.301	86.9818	133.301	85.6683	133.301	86.8581	133.301	85.4536	133.301	86.6813	133.301	85.2502	133.301	86.4526	133.301	85.0793	133.301	86.181	133.301	84.9632	133.301	85.8839	133.301	84.922	133.301	85.586	133.301	84.968	133.301	85.3163	133.301	85.1031
139.16	86.6534	139.16	86.6133	139.16	86.6916	139.16	86.569	139.16	86.7305	139.16	86.5189	139.16	86.7732	139.16	86.4613	139.16	86.8218	139.16	86.3946	139.16	86.8769	139.16	86.3164	139.16	86.9364	139.16	86.2243	139.16	86.9948	139.16	86.1163	139.16	87.0434	139.16	85.9914	139.16	87.0706	139.16	85.8511	139.16	87.0635	139.16	85.7004	139.16	87.01	139.16	85.5486	139.16	86.9015	139.16	85.4098	139.16	86.7351	139.16	85.3018	139.16	86.516	139.16	85.2438	139.16	86.2583	139.16	85.2525	139.16	85.9843	139.16	85.3377	139.16	85.7216	139.16	85.4984
143.555	86.5721	143.555	86.5052	143.555	86.6454	143.555	86.4455	143.555	86.7234	143.555	86.3927	143.555	86.8039	143.555	86.3447	143.555	86.8848	143.555	86.2983	143.555	86.9637	143.555	86.2484	143.555	87.0377	143.555	86.1901	143.555	87.1027	143.555	86.1188	143.555	87.1526	143.555	86.0319	143.555	87.1797	143.555	85.9301	143.555	87.1745	143.555	85.818	143.555	87.1279	143.555	85.7047	143.555	87.0329	143.555	85.6033	143.555	86.8868	143.555	85.5297	143.555	86.6938	143.555	85.5002	143.555	86.4656	143.555	85.5283	143.555	86.2208	143.555	85.621	143.555	85.9831	143.555	85.7765
147.949	87.1774	147.949	87.1098	147.949	87.2397	147.949	87.0367	147.949	87.2952	147.949	86.9561	147.949	87.3413	147.949	86.8642	147.949	87.3753	147.949	86.756	147.949	87.3946	147.949	86.6266	147.949	87.3968	147.949	86.4723	147.949	87.3793	147.949	86.2918	147.949	87.3388	147.949	86.0878	147.949	87.2706	147.949	85.8675	147.949	87.1693	147.949	85.6427	147.949	87.0297	147.949	85.4296	147.949	86.8482	147.949	85.2473	147.949	86.6257	147.949	85.1147	147.949	86.3681	147.949	85.0482	147.949	86.088	147.949	85.0585	147.949	85.8038	147.949	85.1485	147.949	85.5378	147.949	85.3128
153.809	87.0269	153.809	86.9704	153.809	87.0729	153.809	86.9032	153.809	87.1089	153.809	86.8248	153.809	87.1364	153.809	86.7337	153.809	87.1576	153.809	86.6272	153.809	87.1746	153.809	86.5019	153.809	87.1881	153.809	86.3544	153.809	87.1962	153.809	86.1829	153.809	87.1928	153.809	85.9881	153.809	87.1688	153.809	85.7748	153.809	87.1124	153.809	85.5531	153.809	87.012	153.809	85.3381	153.809	86.8591	153.809	85.1497	153.809	86.6508	153.809	85.0096	153.809	86.3921	153.809	84.9385	153.809	86.0971	153.809	84.9512	153.809	85.7879	153.809	85.0532	153.809	85.4923	153.809	85.2391
159.668	87.2418	159.668	87.1825	159.668	87.2901	159.668	87.1117	159.668	87.3276	159.668	87.0292	159.668	87.3557	159.668	86.9336	159.668	87.3761	159.668	86.8226	159.668	87.3902	159.668	86.6935	159.668	87.3985	159.668	86.5434	159.668	87.3988	159.668	86.3712	159.668	87.3859	159.668	86.1782	159.668	87.3513	159.668	85.9696	159.668	87.2848	159.668	85.7555	159.668	87.1768	159.668	85.551	159.668	87.0203	159.668	85.3748	159.668	86.8139	159.668	85.2471	159.668	86.5636	159.668	85.1859	159.668	86.2828	159.668	85.2033	159.668	85.992	159.668	85.3029	159.668	85.7156	159.668	85.4786
165.527	87.1827	165.527	87.1328	165.527	87.226	165.527	87.0768	165.527	87.2624	165.527	87.0142	165.527	87.2921	165.527	86.9433	165.527	87.3164	165.527	86.8606	165.527	87.3366	165.527	86.7615	165.527	87.3533	165.527	86.6412	165.527	87.3643	165.527	86.4963	165.527	87.364	165.527	86.3262	165.527	87.3431	165.527	86.1349	165.527	87.2903	165.527	85.9317	165.527	87.1942	165.527	85.7314	165.527	87.0473	165.527	85.5528	165.527	86.8482	165.527	85.4165	165.527	86.604	165.527	85.3411	165.527	86.3305	165.527	85.3397	165.527	86.0503	165.527	85.4177	165.527	85.789	165.527	85.5716
171.387	87.1018	171.387	87.0341	171.387	87.1609	171.387	86.9596	171.387	87.2101	171.387	86.8804	171.387	87.2503	171.387	86.7966	171.387	87.2831	171.387	86.7063	171.387	87.3107	171.387	86.6055	171.387	87.3335	171.387	86.489	171.387	87.3487	171.387	86.3523	171.387	87.3497	171.387	86.1936	171.387	87.3261	171.387	86.0157	171.387	87.2662	171.387	85.8269	171.387	87.1596	171.387	85.6412	171.387	87.0004	171.387	85.4768	171.387	86.7902	171.387	85.3533	171.387	86.5385	171.387	85.2878	171.387	86.2628	171.387	85.2922	171.387	85.9857	171.387	85.3709	171.387	85.7311	171.387	85.5207
177.246	87.2176	177.246	87.1453	177.246	87.2723	177.246	87.056	177.246	87.3108	177.246	86.9518	177.246	87.337	177.246	86.8351	177.246	87.3561	177.246	86.7083	177.246	87.3731	177.246	86.5724	177.246	87.3906	177.246	86.4277	177.246	87.4063	177.246	86.2744	177.246	87.4124	177.246	86.1135	177.246	87.396	177.246	85.9483	177.246	87.3416	177.246	85.7852	177.246	87.2357	177.246	85.6335	177.246	87.0707	177.246	85.5047	177.246	86.8486	177.246	85.4111	177.246	86.5826	177.246	85.3636	177.246	86.2954	177.246	85.371	177.246	86.0149	177.246	85.4395	177.246	85.7675	177.246	85.5724
183.105	87.096	183.105	87.0547	183.105	87.1301	183.105	87.0039	183.105	87.1589	183.105	86.9409	183.105	87.1845	183.105	86.862	183.105	87.2099	183.105	86.7625	183.105	87.2376	183.105	86.6377	183.105	87.2691	183.105	86.4838	183.105	87.302	183.105	86.2993	183.105	87.3286	183.105	86.0869	183.105	87.3352	183.105	85.8545	183.105	87.304	183.105	85.6159	183.105	87.2175	183.105	85.3901	183.105	87.0628	183.105	85.1987	183.105	86.8363	183.105	85.0621	183.105	86.547	183.105	84.9967	183.105	86.2167	183.105	85.0126	183.105	85.8766	183.105	85.1145	183.105	85.5613	183.105	85.3006
188.965	87.1357	188.965	87.0736	188.965	87.1794	188.965	86.9963	188.965	87.2025	188.965	86.9059	188.965	87.2056	188.965	86.802	188.965	87.1934	188.965	86.6817	188.965	87.1742	188.965	86.5398	188.965	87.1574	188.965	86.3706	188.965	87.1492	188.965	86.1697	188.965	87.1484	188.965	85.9366	188.965	87.1446	188.965	85.6767	188.965	87.1193	188.965	85.4035	188.965	87.0507	188.965	85.1389	188.965	86.9193	188.965	84.9107	188.965	86.7142	188.965	84.7482	188.965	86.4372	188.965	84.6757	188.965	86.104	188.965	84.7074	188.965	85.7427	188.965	84.8454	188.965	85.3891	188.965	85.0798
196.289	87.2664	196.289	87.2096	196.289	87.3075	196.289	87.1432	196.289	87.3279	196.289	87.0719	196.289	87.3262	196.289	86.9974	196.289	87.305	196.289	86.9172	196.289	87.2708	196.289	86.8249	196.289	87.2321	196.289	86.7122	196.289	87.1964	196.289	86.5715	196.289	87.166	196.289	86.3994	196.289	87.1366	196.289	86.1988	196.289	87.0969	196.289	85.9804	196.289	87.0321	196.289	85.7622	196.289	86.9277	196.289	85.5675	196.289	86.7748	196.289	85.4207	196.289	86.5731	196.289	85.3425	196.289	86.3326	196.289	85.3459	196.289	86.0723	196.289	85.4333	196.289	85.8178	196.289	85.5966
203.613	87.091	203.613	87.0854	203.613	87.0733	203.613	87.0559	203.613	87.0361	203.613	87.0024	203.613	86.9869	203.613	86.9243	203.613	86.9367	203.613	86.8192	203.613	86.8976	203.613	86.6836	203.613	86.8796	203.613	86.5148	203.613	86.8868	203.613	86.3129	203.613	86.9139	203.613	86.083	203.613	86.9457	203.613	85.8364	203.613	86.9601	203.613	85.591	203.613	86.9336	203.613	85.3694	203.613	86.8481	203.613	85.1952	203.613	86.6961	203.613	85.0885	203.613	86.4831	203.613	85.0612	203.613	86.2262	203.613	85.1154	203.613	85.9495	203.613	85.2449	203.613	85.679	203.613	85.4379
210.938	87.0934	210.938	87.0468	210.938	87.1166	210.938	86.9806	210.938	87.1134	210.938	86.8979	210.938	87.0828	210.938	86.7992	210.938	87.0274	210.938	86.6825	210.938	86.9527	210.938	86.5433	210.938	86.8666	210.938	86.3762	210.938	86.7769	210.938	86.1769	210.938	86.6878	210.938	85.9449	210.938	86.597	210.938	85.6853	210.938	86.4959	210.938	85.4112	210.938	86.3718	210.938	85.1434	210.938	86.2135	210.938	84.9085	210.938	86.0157	210.938	84.7329	210.938	85.7828	210.938	84.636	210.938	85.5284	210.938	84.6251	210.938	85.2722	210.938	84.6963	210.938	85.0356	210.938	84.838
218.262	86.6314	218.262	86.5479	218.262	86.7004	218.262	86.4612	218.262	86.747	218.262	86.3827	218.262	86.7685	218.262	86.3205	218.262	86.7685	218.262	86.2765	218.262	86.756	218.262	86.246	218.262	86.7419	218.262	86.2186	218.262	86.7347	218.262	86.181	218.262	86.7355	218.262	86.1208	218.262	86.7359	218.262	86.0299	218.262	86.7196	218.262	85.9075	218.262	86.668	218.262	85.7614	218.262	86.5672	218.262	85.6074	218.262	86.4132	218.262	85.4669	218.262	86.2143	218.262	85.3627	218.262	85.9899	218.262	85.3135	218.262	85.7655	218.262	85.3311	218.262	85.5675	218.262	85.4178
225.586	86.1969	225.586	86.0995	225.586	86.2608	225.586	85.9835	225.586	86.2828	225.586	85.866	225.586	86.2634	225.586	85.7624	225.586	86.2138	225.586	85.6828	225.586	86.155	225.586	85.63	225.586	86.1128	225.586	85.5996	225.586	86.1091	225.586	85.5827	225.586	86.1518	225.586	85.5693	225.586	86.2297	225.586	85.551	225.586	86.315	225.586	85.5236	225.586	86.3743	225.586	85.4879	225.586	86.3805	225.586	85.4493	225.586	86.3211	225.586	85.4173	225.586	86.2008	225.586	85.4031	225.586	86.0391	225.586	85.4176	225.586	85.8628	225.586	85.4695	225.586	85.6978	225.586	85.5635
232.91	86.9053	232.91	86.8202	232.91	86.9224	232.91	86.6798	232.91	86.8646	232.91	86.4994	232.91	86.7322	232.91	86.2959	232.91	86.5347	232.91	86.0852	232.91	86.2928	232.91	85.8814	232.91	86.0385	232.91	85.697	232.91	85.8121	232.91	85.5421	232.91	85.6535	232.91	85.4259	232.91	85.588	232.91	85.3556	232.91	85.6152	232.91	85.3351	232.91	85.7081	232.91	85.3633	232.91	85.8271	232.91	85.4329	232.91	85.936	232.91	85.5318	232.91	86.0122	232.91	85.6453	232.91	86.048	232.91	85.7593	232.91	86.0456	232.91	85.8627	232.91	86.0105	232.91	85.9481
241.699	87.2184	241.699	87.0629	241.699	87.319	241.699	86.8626	241.699	87.3576	241.699	86.6297	241.699	87.3304	241.699	86.3771	241.699	87.2378	241.699	86.1168	241.699	87.0844	241.699	85.8602	241.699	86.8803	241.699	85.6179	241.699	86.641	241.699	85.4011	241.699	86.386	241.699	85.222	241.699	86.1355	241.699	85.0927	241.699	85.9053	241.699	85.0223	241.699	85.7052	241.699	85.0121	241.699	85.5402	241.699	85.0534	241.699	85.4145	241.699	85.1279	241.699	85.3327	241.699	85.2118	241.699	85.2961	241.699	85.2825	241.699	85.297	241.699	85.3241	241.699	85.317	241.699	85.3326
250.488	87.7202	250.488	87.5673	250.488	87.8092	250.488	87.3574	250.488	87.8294	250.488	87.098	250.488	87.7799	250.488	86.7954	250.488	87.665	250.488	86.455	250.488	87.4949	250.488	86.0815	250.488	87.2844	250.488	85.6822	250.488	87.0503	250.488	85.2712	250.488	86.8068	250.488	84.8733	250.488	86.5609	250.488	84.524	250.488	86.3105	250.488	84.2626	250.488	86.0483	250.488	84.1181	250.488	85.7698	250.488	84.0937	250.488	85.4818	250.488	84.1633	250.488	85.2061	250.488	84.2824	250.488	84.9714	250.488	84.408	250.488	84.7976	250.488	84.5137	250.488	84.6817	250.488	84.5979
259.277	87.5315	259.277	87.3995	259.277	87.6011	259.277	87.2136	259.277	87.6029	259.277	86.9841	259.277	87.5364	259.277	86.7205	259.277	87.4073	259.277	86.4307	259.277	87.2274	259.277	86.1203	259.277	87.0141	259.277	85.7943	259.277	86.7875	259.277	85.4595	259.277	86.5658	259.277	85.1291	259.277	86.3594	259.277	84.8249	259.277	86.1669	259.277	84.5758	259.277	85.9775	259.277	84.4102	259.277	85.779	259.277	84.3432	259.277	85.5676	259.277	84.3671	259.277	85.3537	259.277	84.4532	259.277	85.1577	259.277	84.565	259.277	84.9974	259.277	84.6749	259.277	84.8746	259.277	84.7743
268.066	87.4832	268.066	87.3202	268.066	87.5787	268.066	87.0962	268.066	87.6029	268.066	86.8196	268.066	87.5565	268.066	86.499	268.066	87.4451	268.066	86.1421	268.066	87.2796	268.066	85.7567	268.066	87.0753	268.066	85.3512	268.066	86.85	268.066	84.9384	268.066	86.6195	268.066	84.539	268.066	86.3933	268.066	84.1834	268.066	86.1714	268.066	83.9083	268.066	85.9454	268.066	83.7464	268.066	85.7055	268.066	83.71	268.066	85.4494	268.066	83.7823	268.066	85.1875	268.066	83.9236	268.066	84.9401	268.066	84.0899	268.066	84.7264	268.066	84.2509	268.066	84.5509	268.066	84.3999
276.855	87.4492	276.855	87.2933	276.855	87.5338	276.855	87.0742	276.855	87.5423	276.855	86.8017	276.855	87.4753	276.855	86.4852	276.855	87.3391	276.855	86.1321	276.855	87.147	276.855	85.7477	276.855	86.9183	276.855	85.3368	276.855	86.6757	276.855	84.9069	276.855	86.4404	276.855	84.4719	276.855	86.2245	276.855	84.0561	276.855	86.0262	276.855	83.6935	276.855	85.8298	276.855	83.4231	276.855	85.6147	276.855	83.2764	276.855	85.3666	276.855	83.2626	276.855	85.0865	276.855	83.3622	276.855	84.7901	276.855	83.5371	276.855	84.4994	276.855	83.7504	276.855	84.2295	276.855	83.9818
287.109	87.3934	287.109	87.2679	287.109	87.4512	287.109	87.0786	287.109	87.4405	287.109	86.8306	287.109	87.3645	287.109	86.5292	287.109	87.2312	287.109	86.1791	287.109	87.0528	287.109	85.7862	287.109	86.8445	287.109	85.3606	287.109	86.6218	287.109	84.9211	287.109	86.3971	287.109	84.4996	287.109	86.1783	287.109	84.1409	287.109	85.968	287.109	83.8923	287.109	85.7675	287.109	83.7855	287.109	85.5796	287.109	83.8198	287.109	85.4092	287.109	83.9624	287.109	85.2606	287.109	84.1651	287.109	85.1325	287.109	84.3828	287.109	85.016	287.109	84.5844	287.109	84.8956	287.109	84.7552
297.363	87.681	297.363	87.5868	297.363	87.6988	297.363	87.4282	297.363	87.6307	297.363	87.2147	297.363	87.4743	297.363	86.9497	297.363	87.2368	297.363	86.6284	297.363	86.9356	297.363	86.2409	297.363	86.5967	297.363	85.7781	297.363	86.2511	297.363	85.2418	297.363	85.9282	297.363	84.6563	297.363	85.6485	297.363	84.0786	297.363	85.4174	297.363	83.5977	297.363	85.2275	297.363	83.3085	297.363	85.0673	297.363	83.261	297.363	84.9315	297.363	83.4251	297.363	84.8222	297.363	83.7108	297.363	84.7403	297.363	84.0205	297.363	84.6745	297.363	84.2857	297.363	84.598	297.363	84.4769
307.617	87.2554	307.617	87.091	307.617	87.3601	307.617	86.8801	307.617	87.3943	307.617	86.6365	307.617	87.3516	307.617	86.3703	307.617	87.2292	307.617	86.0847	307.617	87.0294	307.617	85.7759	307.617	86.7602	307.617	85.4368	307.617	86.4361	307.617	85.0643	307.617	86.0759	307.617	84.667	307.617	85.7	307.617	84.2719	307.617	85.3283	307.617	83.9263	307.617	84.9814	307.617	83.6873	307.617	84.6843	307.617	83.5983	307.617	84.4653	307.617	83.6628	307.617	84.3446	307.617	83.8365	307.617	84.317	307.617	84.0485	307.617	84.3444	307.617	84.2307	307.617	84.3695	307.617	84.3404
319.336	87.3957	319.336	87.2767	319.336	87.4432	319.336	87.0981	319.336	87.4097	319.336	86.8699	319.336	87.2923	319.336	86.5961	319.336	87.096	319.336	86.2733	319.336	86.8332	319.336	85.8924	319.336	86.5207	319.336	85.4452	319.336	86.1756	319.336	84.9329	319.336	85.8105	319.336	84.3783	319.336	85.4316	319.336	83.8355	319.336	85.0413	319.336	83.3887	319.336	84.6464	319.336	83.1247	319.336	84.2705	319.336	83.0834	319.336	83.9588	319.336	83.2271	319.336	83.7629	319.336	83.4631	319.336	83.7066	319.336	83.6931	319.336	83.7594	319.336	83.8469	319.336	83.8482	319.336	83.8946
329.59	86.9817	329.59	86.8364	329.59	87.0685	329.59	86.6469	329.59	87.0871	329.59	86.4277	329.59	87.0348	329.59	86.1874	329.59	86.9154	329.59	85.9241	329.59	86.738	329.59	85.6245	329.59	86.514	329.59	85.2699	329.59	86.2538	329.59	84.846	329.59	85.9632	329.59	84.3565	329.59	85.6404	329.59	83.8364	329.59	85.2789	329.59	83.3581	329.59	84.8774	329.59	83.0175	329.59	84.4545	329.59	82.887	329.59	84.0595	329.59	82.9646	329.59	83.7605	329.59	83.1714	329.59	83.6054	329.59	83.4004	329.59	83.5825	329.59	83.5678	329.59	83.6215	329.59	83.6367
341.309	87.0325	341.309	86.8132	341.309	87.1604	341.309	86.5202	341.309	87.1899	341.309	86.178	341.309	87.1243	341.309	85.8126	341.309	86.9762	341.309	85.4435	341.309	86.7645	341.309	85.0783	341.309	86.5097	341.309	84.7119	341.309	86.2286	341.309	84.3341	341.309	85.9282	341.309	83.943	341.309	85.605	341.309	83.5586	341.309	85.2507	341.309	83.2304	341.309	84.8654	341.309	83.0268	341.309	84.4724	341.309	82.9994	341.309	84.124	341.309	83.144	341.309	83.8852	341.309	83.3937	341.309	83.7935	341.309	83.6535	341.309	83.8233	341.309	83.8427	341.309	83.895	341.309	83.9204
353.027	87.0974	353.027	86.9293	353.027	87.1671	353.027	86.6762	353.027	87.1314	353.027	86.3552	353.027	86.9924	353.027	85.9831	353.027	86.7636	353.027	85.5706	353.027	86.4711	353.027	85.1187	353.027	86.1505	353.027	84.6203	353.027	85.8364	353.027	84.0691	353.027	85.5456	353.027	83.4768	353.027	85.265	353.027	82.892	353.027	84.9566	353.027	82.41	353.027	84.5838	353.027	82.1463	353.027	84.145	353.027	82.165	353.027	83.698	353.027	82.4184	353.027	83.3475	353.027	82.7754	353.027	83.1812	353.027	83.1002	353.027	83.196	353.027	83.3049	353.027	83.2958	353.027	83.3603
366.211	87.8185	366.211	87.6626	366.211	87.8733	366.211	87.4143	366.211	87.8161	366.211	87.0774	366.211	87.6387	366.211	86.6511	366.211	87.3421	366.211	86.1318	366.211	86.9416	366.211	85.5184	366.211	86.469	366.211	84.8178	366.211	85.9689	366.211	84.0531	366.211	85.4871	366.211	83.2738	366.211	85.0522	366.211	82.5604	366.211	84.6599	366.211	82.0151	366.211	84.2773	366.211	81.7249	366.211	83.873	366.211	81.7138	366.211	83.4561	366.211	81.9238	366.211	83.093	366.211	82.2443	366.211	82.8704	366.211	82.559	366.211	82.815	366.211	82.7811	366.211	82.8546	366.211	82.8721
379.395	87.1155	379.395	86.9429	379.395	87.2168	379.395	86.7251	379.395	87.2255	379.395	86.4841	379.395	87.1304	379.395	86.2282	379.395	86.9335	379.395	85.9465	379.395	86.6481	379.395	85.6126	379.395	86.2939	379.395	85.1951	379.395	85.89	379.395	84.6734	379.395	85.4495	379.395	84.0555	379.395	84.9786	379.395	83.3959	379.395	84.4851	379.395	82.806	379.395	83.9958	379.395	82.4306	379.395	83.5707	379.395	82.3681	379.395	83.2937	379.395	82.5918	379.395	83.2229	379.395	82.9685	379.395	83.3355	379.395	83.3479	379.395	83.5327	379.395	83.623	379.395	83.6969	379.395	83.7408
392.578	86.8007	392.578	86.5966	392.578	86.9064	392.578	86.3195	392.578	86.8983	392.578	85.9983	392.578	86.7755	392.578	85.6559	392.578	86.5542	392.578	85.2998	392.578	86.2643	392.578	84.9176	392.578	85.9409	392.578	84.483	392.578	85.6107	392.578	83.973	392.578	85.2798	392.578	83.3912	392.578	84.9285	392.578	82.7925	392.578	84.5207	392.578	82.2931	392.578	84.0275	392.578	82.0366	392.578	83.4646	392.578	82.1011	392.578	82.9268	392.578	82.4266	392.578	82.5797	392.578	82.8535	392.578	82.5511	392.578	83.2182	392.578	82.7984	392.578	83.4078	392.578	83.1348	392.578	83.3731
405.762	86.8233	405.762	86.6593	405.762	86.863	405.762	86.3867	405.762	86.7774	405.762	86.0288	405.762	86.5839	405.762	85.6076	405.762	86.3166	405.762	85.1357	405.762	86.0169	405.762	84.6132	405.762	85.7207	405.762	84.0312	405.762	85.4465	405.762	83.383	405.762	85.1868	405.762	82.6815	405.762	84.9076	405.762	81.9807	405.762	84.5597	405.762	81.3953	405.762	84.1055	405.762	81.0856	405.762	83.5592	405.762	81.1667	405.762	83.0216	405.762	81.5951	405.762	82.665	405.762	82.1842	405.762	82.6149	405.762	82.728	405.762	82.8156	405.762	83.0856	405.762	83.0712	405.762	83.195
420.41	87.0108	420.41	86.839	420.41	87.08	420.41	86.5919	420.41	87.0348	420.41	86.3034	420.41	86.8824	420.41	85.9986	420.41	86.6465	420.41	85.6793	420.41	86.3601	420.41	85.3184	420.41	86.0523	420.41	84.8694	420.41	85.7358	420.41	84.2878	420.41	85.3983	420.41	83.5578	420.41	85.0043	420.41	82.7236	420.41	84.5091	420.41	81.9167	420.41	83.8863	420.41	81.3418	420.41	83.1659	420.41	81.1655	420.41	82.4701	420.41	81.3729	420.41	81.9956	420.41	81.7824	420.41	81.88	420.41	82.1867	420.41	82.0592	420.41	82.4428	420.41	82.3244	420.41	82.4851
435.059	86.5568	435.059	86.4177	435.059	86.5725	435.059	86.1669	435.059	86.469	435.059	85.8278	435.059	86.2682	435.059	85.4303	435.059	86.0064	435.059	85.0031	435.059	85.7271	435.059	84.5642	435.059	85.4736	435.059	84.115	435.059	85.2732	435.059	83.6438	435.059	85.1119	435.059	83.1435	435.059	84.9223	435.059	82.6404	435.059	84.6085	435.059	82.2198	435.059	84.1014	435.059	82.0161	435.059	83.4246	435.059	82.13	435.059	82.7595	435.059	82.5272	435.059	82.4179	435.059	83.048	435.059	82.5761	435.059	83.5111	435.059	83.054	435.059	83.7846	435.059	83.5293	435.059	83.7957
451.172	86.9297	451.172	86.7037	451.172	87.0197	451.172	86.3633	451.172	86.963	451.172	85.9369	451.172	86.7584	451.172	85.449	451.172	86.4121	451.172	84.9071	451.172	85.9401	451.172	84.2937	451.172	85.3806	451.172	83.5728	451.172	84.8028	451.172	82.709	451.172	84.2883	451.172	81.6989	451.172	83.8707	451.172	80.6186	451.172	83.4849	451.172	79.6881	451.172	82.9907	451.172	79.254	451.172	82.2589	451.172	79.5095	451.172	81.2764	451.172	80.2361	451.172	80.2808	451.172	81.0312	451.172	79.7948	451.172	81.5984	451.172	80.124	451.172	81.7816	451.172	80.882	451.172	81.5242
465.82	86.2235	465.82	86.0585	465.82	86.2889	465.82	85.8121	465.82	86.2438	465.82	85.5075	465.82	86.0815	465.82	85.1618	465.82	85.8001	465.82	84.7725	465.82	85.4108	465.82	84.3129	465.82	84.9514	465.82	83.7411	465.82	84.488	465.82	83.0199	465.82	84.09	465.82	82.1434	465.82	83.7818	465.82	81.1774	465.82	83.5077	465.82	80.3083	465.82	83.153	465.82	79.8263	465.82	82.6185	465.82	79.9217	465.82	81.9152	465.82	80.467	465.82	81.2444	465.82	81.1429	465.82	80.9359	465.82	81.6837	465.82	81.1185	465.82	81.9457	465.82	81.545	465.82	81.8831
483.398	86.0034	483.398	85.791	483.398	86.0672	483.398	85.4704	483.398	85.9716	483.398	85.0988	483.398	85.7378	483.398	84.7272	483.398	85.4109	483.398	84.375	483.398	85.0415	483.398	84.0163	483.398	84.6708	483.398	83.585	483.398	84.328	483.398	82.9953	483.398	84.0305	483.398	82.1725	483.398	83.7674	483.398	81.1065	483.398	83.4799	483.398	79.9534	483.398	83.0813	483.398	79.1479	483.398	82.5175	483.398	79.1792	483.398	81.8446	483.398	79.9562	483.398	81.2791	483.398	80.9264	483.398	81.0973	483.398	81.684	483.398	81.3479	483.398	82.0734	483.398	81.7758	483.398	82.0791
499.512	86.4995	499.512	86.2209	499.512	86.6265	499.512	85.8415	499.512	86.5871	499.512	85.4376	499.512	86.3947	499.512	85.0735	499.512	86.0765	499.512	84.7571	499.512	85.664	499.512	84.4251	499.512	85.195	499.512	83.9716	499.512	84.7172	499.512	83.2904	499.512	84.2747	499.512	82.312	499.512	83.8712	499.512	81.0458	499.512	83.4422	499.512	79.6672	499.512	82.8765	499.512	78.6468	499.512	82.0954	499.512	78.5706	499.512	81.1784	499.512	79.4042	499.512	80.4844	499.512	80.526	499.512	80.4565	499.512	81.4547	499.512	81.0288	499.512	81.987	499.512	81.6917	499.512	82.06
517.09	85.6721	517.09	85.3624	517.09	85.8219	517.09	84.9564	517.09	85.7901	517.09	84.5615	517.09	85.5893	517.09	84.2952	517.09	85.2632	517.09	84.2103	517.09	84.8858	517.09	84.2379	517.09	84.5498	517.09	84.2219	517.09	84.3332	517.09	84.0006	517.09	84.2481	517.09	83.4586	517.09	84.2084	517.09	82.541	517.09	84.0554	517.09	81.2806	517.09	83.6206	517.09	79.9094	517.09	82.7885	517.09	79.0087	517.09	81.5921	517.09	79.1443	517.09	80.4092	517.09	80.0385	517.09	79.9753	517.09	80.9895	517.09	80.4845	517.09	81.5837	517.09	81.243	517.09	81.6716
536.133	86.1532	536.133	85.7905	536.133	86.2504	536.133	85.204	536.133	86.0758	536.133	84.4871	536.133	85.6463	536.133	83.794	536.133	84.9948	536.133	83.2903	536.133	84.176	536.133	83.0313	536.133	83.3109	536.133	82.9024	536.133	82.6497	536.133	82.7113	536.133	82.4854	536.133	82.2977	536.133	82.829	536.133	81.58	536.133	83.3209	536.133	80.6161	536.133	83.5378	536.133	79.7385	536.133	83.1872	536.133	79.5326	536.133	82.1376	536.133	80.2031	536.133	80.5854	536.133	81.2463	536.133	79.5308	536.133	82.1078	536.133	80.0674	536.133	82.4912	536.133	81.3443	536.133	82.2498
555.176	85.862	555.176	85.5694	555.176	85.9498	555.176	85.0467	555.176	85.8694	555.176	84.3162	555.176	85.6361	555.176	83.4822	555.176	85.2266	555.176	82.7317	555.176	84.5943	555.176	82.2383	555.176	83.7125	555.176	82.0073	555.176	82.6279	555.176	81.8502	555.176	81.5218	555.176	81.5156	555.176	80.7366	555.176	80.8232	555.176	80.576	555.176	79.748	555.176	80.9163	555.176	78.5263	555.176	81.2866	555.176	77.7565	555.176	81.2994	555.176	77.9718	555.176	80.8366	555.176	78.849	555.176	80.103	555.176	79.6829	555.176	79.6062	555.176	80.0867	555.176	79.6802	555.176	80.0075
574.219	85.7718	574.219	85.2824	574.219	86.0205	574.219	84.5833	574.219	86.0145	574.219	83.7421	574.219	85.7495	574.219	82.8801	574.219	85.2375	574.219	82.1601	574.219	84.5221	574.219	81.7127	574.219	83.6895	574.219	81.5315	574.219	82.8658	574.219	81.4546	574.219	82.1842	574.219	81.2562	574.219	81.7087	574.219	80.7456	574.219	81.3586	574.219	79.8439	574.219	80.9398	574.219	78.7127	574.219	80.2809	574.219	77.9327	574.219	79.3821	574.219	78.1496	574.219	78.5657	574.219	79.1116	574.219	78.4174	574.219	80.0718	574.219	79.0809	574.219	80.6002	574.219	79.9789	574.219	80.561
594.727	85.7351	594.727	85.4082	594.727	85.7743	594.727	84.8119	594.727	85.5441	594.727	84.0123	594.727	85.0916	594.727	83.1338	594.727	84.4721	594.727	82.3391	594.727	83.7249	594.727	81.7487	594.727	82.8855	594.727	81.3514	594.727	82.0585	594.727	81.0176	594.727	81.4627	594.727	80.6007	594.727	81.2714	594.727	80.0072	594.727	81.345	594.727	79.21	594.727	81.296	594.727	78.282	594.727	80.7873	594.727	77.5196	594.727	79.7308	594.727	77.4406	594.727	78.5091	594.727	78.1769	594.727	78.0498	594.727	79.168	594.727	78.6658	594.727	79.8518	594.727	79.5259	594.727	79.9827
615.234	85.0798	615.234	84.8169	615.234	85.0991	615.234	84.2963	615.234	84.9125	615.234	83.5522	615.234	84.5468	615.234	82.6842	615.234	83.9908	615.234	81.8451	615.234	83.2119	615.234	81.1659	615.234	82.227	615.234	80.6616	615.234	81.1744	615.234	80.2441	615.234	80.2995	615.234	79.8304	615.234	79.8272	615.234	79.396	615.234	79.8262	615.234	78.9518	615.234	80.1564	615.234	78.5392	615.234	80.4762	615.234	78.2911	615.234	80.3801	615.234	78.4109	615.234	79.6572	615.234	78.9298	615.234	78.6301	615.234	79.5621	615.234	78.2978	615.234	79.9144	615.234	78.9752	615.234	79.7153
637.207	85.383	637.207	84.9829	637.207	85.5232	637.207	84.3354	637.207	85.4379	637.207	83.5259	637.207	85.1525	637.207	82.6946	637.207	84.6397	637.207	81.9635	637.207	83.8452	637.207	81.3556	637.207	82.7696	637.207	80.8072	637.207	81.5444	637.207	80.2622	637.207	80.4545	637.207	79.7192	637.207	79.8268	637.207	79.1793	637.207	79.675	637.207	78.5994	637.207	79.5552	637.207	78.0066	637.207	78.9921	637.207	77.7183	637.207	77.9115	637.207	78.1639	637.207	77.0203	637.207	79.1897	637.207	77.4472	637.207	80.1905	637.207	78.8203	637.207	80.7516	637.207	80.0523	637.207	80.7176
659.18	85.9562	659.18	85.4961	659.18	86.1039	659.18	84.7404	659.18	85.9471	659.18	83.7916	659.18	85.4778	659.18	82.8672	659.18	84.681	659.18	82.2196	659.18	83.5906	659.18	81.9302	659.18	82.3586	659.18	81.805	659.18	81.2753	659.18	81.5218	659.18	80.6579	659.18	80.8336	659.18	80.6044	659.18	79.7146	659.18	80.8578	659.18	78.5162	659.18	80.9896	659.18	77.9446	659.18	80.6059	659.18	78.3507	659.18	79.447	659.18	79.3552	659.18	77.8349	659.18	80.4973	659.18	77.6596	659.18	81.48	659.18	79.5007	659.18	82.0735	659.18	81.2304	659.18	82.0616
682.617	86.867	682.617	86.407	682.617	86.9342	682.617	85.5952	682.617	86.6321	682.617	84.5453	682.617	86.0413	682.617	83.4541	682.617	85.2629	682.617	82.5661	682.617	84.3286	682.617	82.0184	682.617	83.171	682.617	81.6871	682.617	81.8452	682.617	81.3126	682.617	80.9362	682.617	80.7434	682.617	81.0893	682.617	79.9906	682.617	81.7227	682.617	79.14	682.617	81.973	682.617	78.3839	682.617	81.5983	682.617	78.2056	682.617	80.6587	682.617	79.0203	682.617	79.2207	682.617	80.4143	682.617	77.8939	682.617	81.6332	682.617	78.4961	682.617	82.2029	682.617	80.4665	682.617	81.8563
707.52	86.954	707.52	86.5498	707.52	87.0619	707.52	85.7946	707.52	86.9485	707.52	84.7075	707.52	86.6277	707.52	83.4166	707.52	86.0024	707.52	82.1838	707.52	84.9189	707.52	81.3432	707.52	83.2864	707.52	80.9943	707.52	81.1614	707.52	80.7814	707.52	78.9763	707.52	80.1914	707.52	78.0881	707.52	78.8946	707.52	78.9398	707.52	77.1696	707.52	79.7747	707.52	76.4365	707.52	79.445	707.52	77.3829	707.52	77.4199	707.52	78.8803	707.52	73.8925	707.52	80.3312	707.52	74.6261	707.52	81.5647	707.52	78.732	707.52	82.3351	707.52	81.2785	707.52	82.3456
732.422	86.9735	732.422	86.6626	732.422	86.8275	732.422	85.839	732.422	86.3598	732.422	84.5331	732.422	85.7248	732.422	82.9051	732.422	84.9751	732.422	81.4011	732.422	84.0525	732.422	80.7125	732.422	82.8701	732.422	80.8419	732.422	81.276	732.422	80.9847	732.422	79.1652	732.422	80.5433	732.422	77.5118	732.422	79.3189	732.422	78.5998	732.422	77.5692	732.422	80.7633	732.422	76.4085	732.422	81.6434	732.422	77.1005	732.422	80.5146	732.422	79.0049	732.422	76.7775	732.422	81.0042	732.422	73.1629	732.422	82.6046	732.422	78.2513	732.422	83.5102	732.422	81.8846	732.422	83.4078
757.324	86.956	757.324	86.8689	757.324	86.7749	757.324	86.2388	757.324	86.654	757.324	84.9531	757.324	86.6388	757.324	83.1531	757.324	86.4213	757.324	81.6176	757.324	85.7095	757.324	81.3351	757.324	84.4067	757.324	81.7234	757.324	82.4472	757.324	81.683	757.324	79.6997	757.324	80.7367	757.324	77.3141	757.324	78.7866	757.324	78.4954	757.324	76.0598	757.324	80.496	757.324	74.0252	757.324	80.9111	757.324	75.5348	757.324	79.3745	757.324	78.663	757.324	75.2728	757.324	81.2106	757.324	71.9343	757.324	82.8798	757.324	77.9648	757.324	83.6591	757.324	81.7744	757.324	83.4143
785.156	86.9213	785.156	86.8701	785.156	86.864	785.156	86.6445	785.156	86.6141	785.156	85.9911	785.156	86.1138	785.156	84.5854	785.156	85.4785	785.156	82.0664	785.156	84.9314	785.156	78.7798	785.156	84.3261	785.156	79.4778	785.156	82.8949	785.156	82.352	785.156	79.3827	785.156	83.2414	785.156	71.2121	785.156	81.7983	785.156	76.3906	785.156	77.148	785.156	82.4637	785.156	63.8472	785.156	84.9704	785.156	73.756	785.156	85.1119	785.156	77.3454	785.156	82.7847	785.156	78.6809	785.156	77.4625	785.156	81.1567	785.156	77.5593	785.156	83.4029	785.156	82.2545	785.156	83.9758
811.523	86.1708	811.523	86.5921	811.523	84.9224	811.523	86.3322	811.523	83.3164	811.523	85.7747	811.523	82.5542	811.523	85.0667	811.523	83.0926	811.523	83.7303	811.523	84.0151	811.523	81.152	811.523	84.548	811.523	78.9732	811.523	84.3912	811.523	80.2463	811.523	83.3415	811.523	81.2769	811.523	80.7332	811.523	80.5579	811.523	73.8762	811.523	78.9766	811.523	68.4056	811.523	77.7827	811.523	80.1664	811.523	76.0329	811.523	83.6703	811.523	69.0757	811.523	83.963	811.523	70.6679	811.523	81.4727	811.523	78.4934	811.523	75.7051	811.523	80.3167	811.523	73.9672	811.523	78.7588
840.82	84.5098	840.82	84.3497	840.82	84.9327	840.82	85.1372	840.82	84.7901	840.82	86.043	840.82	83.9342	840.82	86.1684	840.82	82.549	840.82	85.1891	840.82	81.218	840.82	82.9651	840.82	80.9721	840.82	79.6936	840.82	81.8115	840.82	77.9422	840.82	82.2217	840.82	79.6358	840.82	80.866	840.82	80.783	840.82	76.8014	840.82	79.981	840.82	69.6027	840.82	77.129	840.82	74.1495	840.82	72.5948	840.82	78.8916	840.82	68.2999	840.82	80.391	840.82	68.0968	840.82	78.7384	840.82	70.9537	840.82	72.0473	840.82	73.0157	840.82	60.4528	840.82	72.0491
870.117	85.0104	870.117	85.7872	870.117	83.716	870.117	85.745	870.117	83.0111	870.117	85.0833	870.117	83.0188	870.117	83.8624	870.117	82.8767	870.117	81.9634	870.117	82.43	870.117	79.9082	870.117	81.8024	870.117	79.6499	870.117	80.944	870.117	81.1187	870.117	79.7053	870.117	82.3253	870.117	77.9242	870.117	82.3811	870.117	75.394	870.117	81.0949	870.117	74.008	870.117	78.7412	870.117	77.6423	870.117	74.9437	870.117	80.3187	870.117	68.1909	870.117	80.6211	870.117	70.4519	870.117	78.7885	870.117	74.2539	870.117	74.7949	870.117	74.852	870.117	71.2129	870.117	73.2502
900.879	85.459	900.879	85.3142	900.879	85.5642	900.879	85.395	900.879	85.1792	900.879	85.5733	900.879	84.0839	900.879	85.4641	900.879	82.5075	900.879	84.5785	900.879	81.0566	900.879	82.3539	900.879	80.4082	900.879	78.316	900.879	80.7137	900.879	75.2447	900.879	81.2692	900.879	78.2218	900.879	81.0405	900.879	80.7346	900.879	79.2891	900.879	81.7249	900.879	75.752	900.879	81.4776	900.879	74.394	900.879	79.5824	900.879	78.3539	900.879	75.2914	900.879	80.4115	900.879	70.0769	900.879	79.5434	900.879	70.418	900.879	75.5959	900.879	72.3104	900.879	71.1003	900.879	72.3501
933.105	85.5972	933.105	85.0066	933.105	86.0429	933.105	84.9931	933.105	85.7407	933.105	85.1641	933.105	84.6381	933.105	84.7656	933.105	83.0053	933.105	83.5851	933.105	81.2781	933.105	81.8096	933.105	79.457	933.105	79.5108	933.105	77.641	933.105	77.4038	933.105	77.5019	933.105	78.8194	933.105	78.2248	933.105	81.5816	933.105	77.2222	933.105	82.2894	933.105	72.761	933.105	80.1718	933.105	73.8871	933.105	74.4635	933.105	79.9129	933.105	63.3362	933.105	81.9882	933.105	61.5733	933.105	81.0152	933.105	68.8957	933.105	77.5503	933.105	74.2674	933.105	75.2383	933.105	75.911
965.332	86.5039	965.332	86.095	965.332	86.2307	965.332	85.3903	965.332	85.3829	965.332	84.8654	965.332	84.4439	965.332	84.4797	965.332	83.7485	965.332	83.7142	965.332	83.1687	965.332	82.1942	965.332	82.2339	965.332	79.9949	965.332	80.6382	965.332	77.3154	965.332	78.9729	965.332	74.9878	965.332	78.6127	965.332	75.6724	965.332	79.2514	965.332	77.8149	965.332	78.8645	965.332	79.2667	965.332	75.9077	965.332	79.5043	965.332	72.4465	965.332	78.5645	965.332	75.906	965.332	76.5497	965.332	78.2898	965.332	74.4974	965.332	78.1579	965.332	73.3875	965.332	76.0821	965.332	73.7131
1,000.49	86.6418	1,000.49	86.6855	1,000.49	85.6281	1,000.49	85.9124	1,000.49	84.4711	1,000.49	85.1336	1,000.49	84.0874	1,000.49	84.7205	1,000.49	83.9166	1,000.49	83.8988	1,000.49	83.0307	1,000.49	82.1477	1,000.49	81.3093	1,000.49	80.6399	1,000.49	79.7801	1,000.49	80.812	1,000.49	79.3088	1,000.49	81.4154	1,000.49	78.6199	1,000.49	81.6868	1,000.49	76.2599	1,000.49	81.9617	1,000.49	73.9145	1,000.49	81.2537	1,000.49	75.3734	1,000.49	78.7895	1,000.49	77.905	1,000.49	75.4201	1,000.49	78.7848	1,000.49	73.282	1,000.49	77.0083	1,000.49	74.0768	1,000.49	74.0702	1,000.49	76.3034	1,000.49	75.4718	1,000.49	77.1474
1,035.64	85.7719	1,035.64	86.5124	1,035.64	84.7542	1,035.64	86.2758	1,035.64	84.261	1,035.64	85.3821	1,035.64	83.6501	1,035.64	84.6319	1,035.64	82.7105	1,035.64	83.7726	1,035.64	82.505	1,035.64	81.3961	1,035.64	82.8248	1,035.64	76.4749	1,035.64	82.1278	1,035.64	64.3104	1,035.64	80.3705	1,035.64	71.9293	1,035.64	79.4379	1,035.64	77.5053	1,035.64	79.845	1,035.64	79.0754	1,035.64	79.3222	1,035.64	78.3259	1,035.64	75.3296	1,035.64	76.08	1,035.64	57.6062	1,035.64	74.923	1,035.64	75.0716	1,035.64	76.6574	1,035.64	77.9578	1,035.64	78.9002	1,035.64	75.5423	1,035.64	79.2096	1,035.64	70.8587	1,035.64	76.3786
1,072.27	85.1324	1,072.27	85.3511	1,072.27	85.2462	1,072.27	85.799	1,072.27	84.7076	1,072.27	85.9038	1,072.27	83.0359	1,072.27	85.0039	1,072.27	81.8725	1,072.27	82.965	1,072.27	81.9172	1,072.27	80.774	1,072.27	81.5971	1,072.27	78.988	1,072.27	80.7966	1,072.27	76.3952	1,072.27	80.2302	1,072.27	72.7549	1,072.27	79.5642	1,072.27	71.1495	1,072.27	77.9259	1,072.27	72.8354	1,072.27	77.2487	1,072.27	74.7724	1,072.27	78.2249	1,072.27	75.2158	1,072.27	77.6488	1,072.27	74.7609	1,072.27	75.8962	1,072.27	75.2286	1,072.27	75.7117	1,072.27	76.5563	1,072.27	76.3535	1,072.27	76.8603	1,072.27	74.898	1,072.27	75.0212
1,108.89	85.7097	1,108.89	85.6353	1,108.89	84.8279	1,108.89	84.8752	1,108.89	83.9038	1,108.89	84.4386	1,108.89	83.838	1,108.89	84.5303	1,108.89	83.5833	1,108.89	84.037	1,108.89	82.5404	1,108.89	82.4779	1,108.89	81.1537	1,108.89	80.3552	1,108.89	79.6902	1,108.89	78.5897	1,108.89	78.2063	1,108.89	77.0036	1,108.89	77.8474	1,108.89	74.347	1,108.89	78.0992	1,108.89	72.8996	1,108.89	76.8629	1,108.89	75.0416	1,108.89	74.365	1,108.89	76.1437	1,108.89	72.5989	1,108.89	75.8092	1,108.89	74.7861	1,108.89	76.1341	1,108.89	75.8875	1,108.89	76.4085	1,108.89	74.518	1,108.89	75.5802	1,108.89	74.2437	1,108.89	74.7178
1,148.44	85.3346	1,148.44	86.3964	1,148.44	85.0776	1,148.44	86.6756	1,148.44	85.3247	1,148.44	85.407	1,148.44	84.5517	1,148.44	83.2256	1,148.44	82.898	1,148.44	82.7056	1,148.44	81.9067	1,148.44	83.3004	1,148.44	81.6247	1,148.44	83.0694	1,148.44	80.3916	1,148.44	81.2796	1,148.44	78.3557	1,148.44	78.6442	1,148.44	76.3962	1,148.44	76.4841	1,148.44	73.0161	1,148.44	75.1035	1,148.44	72.6465	1,148.44	76.4062	1,148.44	75.4665	1,148.44	76.5522	1,148.44	77.8728	1,148.44	74.5516	1,148.44	78.6026	1,148.44	73.632	1,148.44	76.6124	1,148.44	75.3466	1,148.44	75.5786	1,148.44	76.5056	1,148.44	75.6152	1,148.44	75.7541
1,189.45	86.7587	1,189.45	87.0125	1,189.45	86.8959	1,189.45	86.8367	1,189.45	86.3579	1,189.45	85.5711	1,189.45	84.479	1,189.45	83.4178	1,189.45	83.6278	1,189.45	81.1615	1,189.45	83.7257	1,189.45	79.8053	1,189.45	82.7613	1,189.45	79.9608	1,189.45	81.6157	1,189.45	80.2828	1,189.45	81.0114	1,189.45	80.0858	1,189.45	80.1288	1,189.45	79.9783	1,189.45	77.9029	1,189.45	79.5968	1,189.45	75.4581	1,189.45	79.1698	1,189.45	75.6229	1,189.45	79.083	1,189.45	71.5725	1,189.45	75.2232	1,189.45	73.7449	1,189.45	70.4672	1,189.45	78.4963	1,189.45	74.9339	1,189.45	76.5821	1,189.45	79.0087	1,189.45	74.6169	1,189.45	78.8225
1,230.47	87.0264	1,230.47	87.0247	1,230.47	87.6625	1,230.47	87.5803	1,230.47	86.8706	1,230.47	86.9287	1,230.47	84.2541	1,230.47	84.2701	1,230.47	83.2143	1,230.47	81.1201	1,230.47	83.8298	1,230.47	81.3485	1,230.47	84.0673	1,230.47	82.8828	1,230.47	83.6561	1,230.47	82.5964	1,230.47	82.2126	1,230.47	80.2324	1,230.47	80.3794	1,230.47	78.126	1,230.47	78.1964	1,230.47	77.8105	1,230.47	75.7214	1,230.47	76.4314	1,230.47	72.8491	1,230.47	75.3882	1,230.47	72.4713	1,230.47	77.3563	1,230.47	76.1396	1,230.47	78.0661	1,230.47	74.8562	1,230.47	77.2664	1,230.47	76.1039	1,230.47	76.7363	1,230.47	78.6609	1,230.47	77.2139
1,274.41	86.2717	1,274.41	86.5874	1,274.41	86.4307	1,274.41	87.0061	1,274.41	85.7675	1,274.41	86.5581	1,274.41	84.9907	1,274.41	84.8963	1,274.41	85.1184	1,274.41	82.3583	1,274.41	83.7288	1,274.41	79.5932	1,274.41	81.088	1,274.41	77.9176	1,274.41	79.4801	1,274.41	78.1518	1,274.41	78.9492	1,274.41	77.1692	1,274.41	78.4709	1,274.41	75.4544	1,274.41	76.5074	1,274.41	74.769	1,274.41	73.3836	1,274.41	75.0351	1,274.41	76.571	1,274.41	76.1831	1,274.41	77.9593	1,274.41	76.8013	1,274.41	74.4143	1,274.41	76.6447	1,274.41	71.4613	1,274.41	77.7745	1,274.41	76.5741	1,274.41	78.9162	1,274.41	76.6344	1,274.41	77.448
1,319.82	86.7316	1,319.82	86.6014	1,319.82	86.3891	1,319.82	86.7906	1,319.82	85.0817	1,319.82	86.0232	1,319.82	85.3456	1,319.82	83.8697	1,319.82	85.6354	1,319.82	81.265	1,319.82	83.6761	1,319.82	78.5606	1,319.82	81.0625	1,319.82	75.4185	1,319.82	79.7429	1,319.82	77.4094	1,319.82	78.6153	1,319.82	79.5799	1,319.82	76.0066	1,319.82	79.3916	1,319.82	74.5402	1,319.82	75.387	1,319.82	74.8942	1,319.82	73.2864	1,319.82	75.9518	1,319.82	76.7352	1,319.82	77.7845	1,319.82	78.148	1,319.82	76.4781	1,319.82	76.6664	1,319.82	75.5999	1,319.82	75.2015	1,319.82	72.0972	1,319.82	76.6406	1,319.82	77.0089	1,319.82	78.7688
1,366.7	86.1949	1,366.7	86.353	1,366.7	86.3137	1,366.7	87.122	1,366.7	85.3042	1,366.7	86.2259	1,366.7	84.5641	1,366.7	83.4425	1,366.7	84.5259	1,366.7	82.0282	1,366.7	84.0776	1,366.7	82.3736	1,366.7	83.6264	1,366.7	80.0236	1,366.7	82.2764	1,366.7	76.3816	1,366.7	79.4767	1,366.7	77.6166	1,366.7	77.3322	1,366.7	78.6298	1,366.7	77.1547	1,366.7	77.247	1,366.7	73.8034	1,366.7	73.1895	1,366.7	66.664	1,366.7	75.4561	1,366.7	74.3669	1,366.7	77.8277	1,366.7	79.1469	1,366.7	75.6266	1,366.7	77.8075	1,366.7	75.8532	1,366.7	69.2501	1,366.7	77.6148	1,366.7	75.1364	1,366.7	77.6564
1,413.57	86.9508	1,413.57	86.3925	1,413.57	86.9123	1,413.57	86.7249	1,413.57	85.3924	1,413.57	85.8739	1,413.57	85.0924	1,413.57	82.8783	1,413.57	84.5758	1,413.57	81.7731	1,413.57	82.8846	1,413.57	83.2835	1,413.57	82.7812	1,413.57	79.6031	1,413.57	82.9873	1,413.57	69.2599	1,413.57	82.873	1,413.57	64.9008	1,413.57	81.9234	1,413.57	65.6693	1,413.57	79.8463	1,413.57	63.8574	1,413.57	77.5881	1,413.57	62.4673	1,413.57	71.4495	1,413.57	74.7188	1,413.57	71.2227	1,413.57	78.9965	1,413.57	75.1118	1,413.57	77.4907	1,413.57	75.4678	1,413.57	75.9401	1,413.57	75.1487	1,413.57	77.0001	1,413.57	72.6042	1,413.57	75.8326
1,463.38	87.0108	1,463.38	87.2417	1,463.38	85.945	1,463.38	86.4421	1,463.38	85.8147	1,463.38	85.7274	1,463.38	85.6092	1,463.38	85.0993	1,463.38	83.4691	1,463.38	82.2672	1,463.38	81.7171	1,463.38	78.1308	1,463.38	81.977	1,463.38	76.122	1,463.38	81.811	1,463.38	72.0082	1,463.38	81.4075	1,463.38	72.3591	1,463.38	79.484	1,463.38	72.1634	1,463.38	76.6602	1,463.38	69.3748	1,463.38	75.2143	1,463.38	71.9337	1,463.38	75.4995	1,463.38	73.9687	1,463.38	74.9073	1,463.38	77.7595	1,463.38	62.6627	1,463.38	76.8509	1,463.38	76.6893	1,463.38	75.3155	1,463.38	76.4688	1,463.38	76.202	1,463.38	74.2777	1,463.38	75.5319
1,516.11	87.3389	1,516.11	86.832	1,516.11	86.8299	1,516.11	86.6303	1,516.11	85.879	1,516.11	85.9757	1,516.11	85.811	1,516.11	84.2635	1,516.11	83.3645	1,516.11	81.1183	1,516.11	81.2569	1,516.11	75.9246	1,516.11	81.2195	1,516.11	73.7066	1,516.11	80.4674	1,516.11	70.9814	1,516.11	80.1189	1,516.11	64.719	1,516.11	78.4807	1,516.11	65.8141	1,516.11	74.512	1,516.11	74.6883	1,516.11	72.3215	1,516.11	76.6173	1,516.11	74.1138	1,516.11	68.8512	1,516.11	72.6203	1,516.11	73.0027	1,516.11	68.1792	1,516.11	76.5	1,516.11	74.6813	1,516.11	77.0347	1,516.11	72.0848	1,516.11	76.2578	1,516.11	75.5767	1,516.11	75.4147
1,568.85	87.032	1,568.85	86.2614	1,568.85	86.4492	1,568.85	85.4927	1,568.85	86.4507	1,568.85	85.4568	1,568.85	85.1637	1,568.85	84.8295	1,568.85	82.126	1,568.85	81.4349	1,568.85	82.4751	1,568.85	75.4585	1,568.85	80.8399	1,568.85	76.0598	1,568.85	77.5654	1,568.85	74.9671	1,568.85	75.5618	1,568.85	67.9513	1,568.85	76.5704	1,568.85	69.9367	1,568.85	74.022	1,568.85	77.4628	1,568.85	68.8884	1,568.85	78.4065	1,568.85	66.0027	1,568.85	72.8353	1,568.85	70.3451	1,568.85	73.8016	1,568.85	77.1453	1,568.85	75.7784	1,568.85	71.9715	1,568.85	74.4208	1,568.85	72.2714	1,568.85	74.6759	1,568.85	73.6281	1,568.85	74.6175
1,624.51	86.0333	1,624.51	85.558	1,624.51	85.1971	1,624.51	84.5566	1,624.51	85.6035	1,624.51	85.3478	1,624.51	84.435	1,624.51	84.5238	1,624.51	82.1109	1,624.51	79.5791	1,624.51	81.328	1,624.51	75.7896	1,624.51	78.5311	1,624.51	73.5252	1,624.51	78.2855	1,624.51	70.6588	1,624.51	78.9495	1,624.51	73.4314	1,624.51	76.5474	1,624.51	71.3694	1,624.51	77.1316	1,624.51	73.0608	1,624.51	76.2228	1,624.51	76.118	1,624.51	73.0799	1,624.51	74.2783	1,624.51	71.3951	1,624.51	72.367	1,624.51	69.8236	1,624.51	75.9279	1,624.51	68.4969	1,624.51	74.0943	1,624.51	73.7121	1,624.51	73.0738	1,624.51	70.7408	1,624.51	71.7353
1,681.64	84.7161	1,681.64	85.2084	1,681.64	85.6887	1,681.64	85.0816	1,681.64	85.7702	1,681.64	84.813	1,681.64	83.9597	1,681.64	83.9072	1,681.64	83.5894	1,681.64	81.5132	1,681.64	81.3199	1,681.64	79.7223	1,681.64	76.5209	1,681.64	74.0725	1,681.64	75.1867	1,681.64	75.1194	1,681.64	76.2034	1,681.64	73.9789	1,681.64	77.6942	1,681.64	65.0036	1,681.64	76.2529	1,681.64	60.1343	1,681.64	74.9783	1,681.64	73.3831	1,681.64	76.9188	1,681.64	77.3747	1,681.64	69.3022	1,681.64	70.3716	1,681.64	76.9005	1,681.64	73.6275	1,681.64	70.7415	1,681.64	75.4816	1,681.64	71.7182	1,681.64	75.0799	1,681.64	71.5083	1,681.64	74.3317
1,741.7	87.0982	1,741.7	85.7042	1,741.7	86.037	1,741.7	84.7479	1,741.7	85.6205	1,741.7	85.1959	1,741.7	84.3968	1,741.7	82.4893	1,741.7	81.2776	1,741.7	79.1428	1,741.7	81.6646	1,741.7	79.0808	1,741.7	80.9496	1,741.7	78.8683	1,741.7	77.2917	1,741.7	76.2386	1,741.7	75.5415	1,741.7	73.1218	1,741.7	75.5081	1,741.7	76.1887	1,741.7	71.9652	1,741.7	70.2008	1,741.7	73.1351	1,741.7	68.3524	1,741.7	75.1479	1,741.7	75.873	1,741.7	72.44	1,741.7	76.4332	1,741.7	72.4572	1,741.7	73.8192	1,741.7	74.5311	1,741.7	74.7249	1,741.7	70.5063	1,741.7	76.1069	1,741.7	73.0866	1,741.7	77.3106
1,803.22	87.7219	1,803.22	87.3438	1,803.22	87.4862	1,803.22	85.9939	1,803.22	86.3189	1,803.22	84.8727	1,803.22	84.0499	1,803.22	83.6581	1,803.22	83.6067	1,803.22	80.5175	1,803.22	82.1725	1,803.22	78.737	1,803.22	79.4952	1,803.22	78.298	1,803.22	77.7839	1,803.22	72.6512	1,803.22	76.731	1,803.22	61.5234	1,803.22	77.7816	1,803.22	72.6011	1,803.22	77.8412	1,803.22	63.3322	1,803.22	74.9852	1,803.22	36.3883	1,803.22	71.6407	1,803.22	74.8221	1,803.22	76.1263	1,803.22	75.0786	1,803.22	70.5864	1,803.22	72.0739	1,803.22	74.7817	1,803.22	72.7285	1,803.22	55.8537	1,803.22	74.1431	1,803.22	72.7018	1,803.22	71.1575
1,866.21	86.7367	1,866.21	86.7438	1,866.21	87.2946	1,866.21	86.2293	1,866.21	86.9705	1,866.21	83.2845	1,866.21	85.2962	1,866.21	81.8542	1,866.21	83.5739	1,866.21	82.0883	1,866.21	80.6755	1,866.21	80.4782	1,866.21	80.7156	1,866.21	73.7848	1,866.21	78.5466	1,866.21	68.5372	1,866.21	76.7325	1,866.21	70.166	1,866.21	78.4012	1,866.21	68.0344	1,866.21	79.1664	1,866.21	75.666	1,866.21	76.187	1,866.21	69.208	1,866.21	75.2813	1,866.21	71.9613	1,866.21	73.7334	1,866.21	74.6235	1,866.21	73.1112	1,866.21	73.0864	1,866.21	74.0791	1,866.21	71.0576	1,866.21	69.2801	1,866.21	71.0014	1,866.21	65.9674	1,866.21	68.9507
1,932.13	86.5892	1,932.13	84.9351	1,932.13	85.7328	1,932.13	85.8401	1,932.13	86.4857	1,932.13	84.6155	1,932.13	84.9811	1,932.13	80.5435	1,932.13	82.1167	1,932.13	82.6937	1,932.13	83.4507	1,932.13	80.9637	1,932.13	81.7687	1,932.13	76.2877	1,932.13	76.1434	1,932.13	71.3404	1,932.13	67.1534	1,932.13	68.5756	1,932.13	69.671	1,932.13	70.962	1,932.13	72.0083	1,932.13	77.8362	1,932.13	64.2444	1,932.13	76.8484	1,932.13	73.0951	1,932.13	70.6751	1,932.13	75.9638	1,932.13	69.8933	1,932.13	61.3886	1,932.13	73.9034	1,932.13	72.9142	1,932.13	73.3169	1,932.13	73.4016	1,932.13	67.3573	1,932.13	68.2595	1,932.13	71.572
1,999.51	87.0364	1,999.51	85.3523	1,999.51	87.0274	1,999.51	84.0045	1,999.51	85.5257	1,999.51	84.6385	1,999.51	84.3269	1,999.51	83.4967	1,999.51	83.3482	1,999.51	81.2234	1,999.51	81.193	1,999.51	80.0763	1,999.51	79.867	1,999.51	77.9154	1,999.51	79.293	1,999.51	74.2747	1,999.51	78.4504	1,999.51	73.2915	1,999.51	74.0136	1,999.51	64.7739	1,999.51	73.6549	1,999.51	73.6175	1,999.51	73.4524	1,999.51	74.1598	1,999.51	72.0531	1,999.51	64.2125	1,999.51	70.545	1,999.51	73.9204	1,999.51	69.3767	1,999.51	73.7285	1,999.51	72.5951	1,999.51	70.2994	1,999.51	71.8114	1,999.51	69.0339	1,999.51	69.8021	1,999.51	69.7611
2,069.82	87.9001	2,069.82	85.952	2,069.82	88.143	2,069.82	84.5074	2,069.82	86.5846	2,069.82	84.3116	2,069.82	84.6297	2,069.82	82.4597	2,069.82	82.2555	2,069.82	79.8406	2,069.82	81.4884	2,069.82	78.7792	2,069.82	80.0789	2,069.82	76.392	2,069.82	78.7728	2,069.82	75.9955	2,069.82	79.3479	2,069.82	75.4983	2,069.82	76.5585	2,069.82	72.0444	2,069.82	73.2636	2,069.82	66.5981	2,069.82	72.3926	2,069.82	74.0824	2,069.82	68.4231	2,069.82	68.5888	2,069.82	68.9018	2,069.82	70.7865	2,069.82	66.0837	2,069.82	74.5977	2,069.82	72.6407	2,069.82	70.0551	2,069.82	72.7323	2,069.82	68.4984	2,069.82	70.1889	2,069.82	68.4639
2,143.07	86.9853	2,143.07	85.8535	2,143.07	88.0154	2,143.07	85.3393	2,143.07	86.9504	2,143.07	83.07	2,143.07	83.9751	2,143.07	80.9501	2,143.07	81.6185	2,143.07	79.9223	2,143.07	81.384	2,143.07	79.7529	2,143.07	79.6271	2,143.07	78.5257	2,143.07	77.4688	2,143.07	74.5374	2,143.07	79.8228	2,143.07	70.1162	2,143.07	78.0141	2,143.07	73.1736	2,143.07	74.2112	2,143.07	69.8711	2,143.07	75.1407	2,143.07	71.7705	2,143.07	69.8045	2,143.07	73.1024	2,143.07	68.7268	2,143.07	67.8504	2,143.07	68.648	2,143.07	72.7535	2,143.07	69.3337	2,143.07	67.0995	2,143.07	72.0064	2,143.07	59.9491	2,143.07	70.0161	2,143.07	66.5242
2,219.24	86.6793	2,219.24	84.9714	2,219.24	87.2495	2,219.24	83.8654	2,219.24	86.075	2,219.24	82.4281	2,219.24	83.8234	2,219.24	81.6426	2,219.24	82.4225	2,219.24	81.6903	2,219.24	81.4842	2,219.24	80.6157	2,219.24	80.5214	2,219.24	78.8153	2,219.24	76.84	2,219.24	77.9878	2,219.24	76.2363	2,219.24	76.5043	2,219.24	77.1283	2,219.24	72.789	2,219.24	75.6878	2,219.24	71.4955	2,219.24	74.852	2,219.24	71.0532	2,219.24	72.1632	2,219.24	73.6952	2,219.24	71.6922	2,219.24	72.1635	2,219.24	69.0473	2,219.24	73.4918	2,219.24	68.289	2,219.24	70.5486	2,219.24	69.7247	2,219.24	61.7951	2,219.24	71.418	2,219.24	65.4774
2,296.88	86.8882	2,296.88	85.0165	2,296.88	87.1436	2,296.88	82.5211	2,296.88	85.6544	2,296.88	81.8751	2,296.88	83.9626	2,296.88	82.1362	2,296.88	82.0946	2,296.88	82.0326	2,296.88	81.659	2,296.88	80.6673	2,296.88	80.8526	2,296.88	79.8544	2,296.88	76.0198	2,296.88	77.2781	2,296.88	70.8942	2,296.88	74.2005	2,296.88	73.6967	2,296.88	72.7434	2,296.88	71.8739	2,296.88	71.2034	2,296.88	73.7011	2,296.88	69.3431	2,296.88	71.7769	2,296.88	72.9156	2,296.88	72.1097	2,296.88	70.6367	2,296.88	68.3335	2,296.88	72.6274	2,296.88	68.2133	2,296.88	68.977	2,296.88	66.8668	2,296.88	58.8029	2,296.88	69.7003	2,296.88	57.1092
2,378.91	86.9374	2,378.91	85.2101	2,378.91	87.3759	2,378.91	82.2934	2,378.91	86.2425	2,378.91	81.744	2,378.91	84.1514	2,378.91	82.4283	2,378.91	81.891	2,378.91	81.4035	2,378.91	81.582	2,378.91	79.8236	2,378.91	79.4321	2,378.91	76.637	2,378.91	77.5481	2,378.91	73.9845	2,378.91	75.9258	2,378.91	74.6734	2,378.91	78.1928	2,378.91	70.6812	2,378.91	75.4045	2,378.91	72.9972	2,378.91	70.0017	2,378.91	68.3466	2,378.91	70.6151	2,378.91	72.6299	2,378.91	70.1861	2,378.91	70.4539	2,378.91	67.9987	2,378.91	69.0501	2,378.91	63.3034	2,378.91	64.4545	2,378.91	66.9112	2,378.91	62.3386	2,378.91	72.6289	2,378.91	65.9362
2,462.4	86.0273	2,462.4	84.8479	2,462.4	86.3762	2,462.4	82.5984	2,462.4	85.2803	2,462.4	81.2933	2,462.4	83.7205	2,462.4	82.2093	2,462.4	81.4	2,462.4	81.6681	2,462.4	81.7925	2,462.4	79.3574	2,462.4	80.2806	2,462.4	78.588	2,462.4	76.7874	2,462.4	76.1152	2,462.4	72.166	2,462.4	70.2994	2,462.4	75.9699	2,462.4	72.3182	2,462.4	74.4604	2,462.4	70.8961	2,462.4	71.3094	2,462.4	70.2128	2,462.4	70.3654	2,462.4	70.4595	2,462.4	72.8097	2,462.4	72.3252	2,462.4	65.7622	2,462.4	70.0474	2,462.4	65.6976	2,462.4	64.724	2,462.4	60.0081	2,462.4	61.8352	2,462.4	71.746	2,462.4	68.5638
2,548.83	86.4248	2,548.83	84.2436	2,548.83	86.5593	2,548.83	80.9734	2,548.83	84.8947	2,548.83	80.4387	2,548.83	81.928	2,548.83	81.0598	2,548.83	80.1718	2,548.83	80.751	2,548.83	80.4027	2,548.83	80.3495	2,548.83	78.7322	2,548.83	78.1192	2,548.83	74.6966	2,548.83	76.3304	2,548.83	76.5313	2,548.83	75.6258	2,548.83	77.6969	2,548.83	70.1943	2,548.83	70.9237	2,548.83	69.0778	2,548.83	64.3951	2,548.83	70.9109	2,548.83	70.71	2,548.83	69.1523	2,548.83	70.4263	2,548.83	71.1526	2,548.83	69.807	2,548.83	69.4488	2,548.83	65.3317	2,548.83	63.5108	2,548.83	61.436	2,548.83	55.9414	2,548.83	69.7658	2,548.83	65.1386
2,639.65	86.2238	2,639.65	84.4443	2,639.65	86.4883	2,639.65	78.5945	2,639.65	84.9321	2,639.65	78.8538	2,639.65	80.7726	2,639.65	81.1141	2,639.65	79.3467	2,639.65	81.7988	2,639.65	80.4041	2,639.65	81.1155	2,639.65	79.3341	2,639.65	79.1774	2,639.65	75.3608	2,639.65	76.627	2,639.65	76.4475	2,639.65	72.368	2,639.65	77.7259	2,639.65	70.0603	2,639.65	72.7345	2,639.65	68.4363	2,639.65	68.6987	2,639.65	67.203	2,639.65	64.9407	2,639.65	70.9304	2,639.65	64.1235	2,639.65	68.2938	2,639.65	70.8187	2,639.65	68.5683	2,639.65	66.4417	2,639.65	65.0178	2,639.65	63.8093	2,639.65	60.5648	2,639.65	69.9336	2,639.65	64.1719
2,731.93	86.6238	2,731.93	83.6846	2,731.93	86.1131	2,731.93	75.3011	2,731.93	83.9653	2,731.93	78.2562	2,731.93	78.6524	2,731.93	82.6489	2,731.93	80.5577	2,731.93	81.5938	2,731.93	81.7255	2,731.93	80.7982	2,731.93	80.5381	2,731.93	76.2817	2,731.93	76.5617	2,731.93	74.4287	2,731.93	71.8973	2,731.93	72.6357	2,731.93	76.2154	2,731.93	68.6125	2,731.93	73.7655	2,731.93	68.9883	2,731.93	72.9666	2,731.93	69.7269	2,731.93	60.6725	2,731.93	69.2644	2,731.93	69.3653	2,731.93	70.8233	2,731.93	67.3381	2,731.93	63.427	2,731.93	66.1365	2,731.93	61.7852	2,731.93	60.4853	2,731.93	66.4136	2,731.93	71.9942	2,731.93	65.5072
2,828.61	87.227	2,828.61	83.8208	2,828.61	86.5761	2,828.61	74.3306	2,828.61	82.8164	2,828.61	78.3763	2,828.61	77.2337	2,828.61	82.5284	2,828.61	81.4836	2,828.61	82.3953	2,828.61	82.3023	2,828.61	80.6941	2,828.61	80.8182	2,828.61	77.2166	2,828.61	79.8373	2,828.61	73.6714	2,828.61	74.0404	2,828.61	73.3036	2,828.61	72.8041	2,828.61	69.6735	2,828.61	77.233	2,828.61	69.6764	2,828.61	74.9659	2,828.61	65.775	2,828.61	67.8758	2,828.61	68.0092	2,828.61	64.3156	2,828.61	70.5453	2,828.61	64.827	2,828.61	69.566	2,828.61	67.0685	2,828.61	57.6797	2,828.61	39.6789	2,828.61	67.7688	2,828.61	72.6867	2,828.61	69.8124
2,928.22	86.6114	2,928.22	83.7955	2,928.22	86.457	2,928.22	73.4317	2,928.22	81.798	2,928.22	78.8199	2,928.22	75.856	2,928.22	82.2362	2,928.22	81.4923	2,928.22	82.7573	2,928.22	82.8455	2,928.22	79.6334	2,928.22	81.8887	2,928.22	77.0772	2,928.22	80.2401	2,928.22	76.3893	2,928.22	70.6012	2,928.22	71.8749	2,928.22	72.3339	2,928.22	68.8071	2,928.22	79.1085	2,928.22	65.6491	2,928.22	75.9366	2,928.22	67.9	2,928.22	63.1142	2,928.22	66.0508	2,928.22	68.9498	2,928.22	71.1178	2,928.22	63.9807	2,928.22	65.2009	2,928.22	65.7223	2,928.22	58.4725	2,928.22	41.6505	2,928.22	66.3575	2,928.22	72.3744	2,928.22	66.2169
3,030.76	86.736	3,030.76	83.3872	3,030.76	86.1078	3,030.76	66.3782	3,030.76	80.4198	3,030.76	80.0505	3,030.76	74.515	3,030.76	83.5932	3,030.76	81.7105	3,030.76	82.9238	3,030.76	83.831	3,030.76	79.7904	3,030.76	81.9644	3,030.76	78.4054	3,030.76	80.5414	3,030.76	70.952	3,030.76	66.15	3,030.76	71.0382	3,030.76	77.0243	3,030.76	70.8749	3,030.76	79.0304	3,030.76	70.0646	3,030.76	70.7452	3,030.76	69.2913	3,030.76	57.8679	3,030.76	67.0229	3,030.76	69.9165	3,030.76	71.6373	3,030.76	65.0651	3,030.76	67.02	3,030.76	66.3269	3,030.76	59.8311	3,030.76	57.0452	3,030.76	68.2842	3,030.76	72.5518	3,030.76	66.6981
3,137.7	86.8506	3,137.7	84.6062	3,137.7	85.7608	3,137.7	69.093	3,137.7	79.9843	3,137.7	81.1191	3,137.7	71.834	3,137.7	83.5513	3,137.7	83.0802	3,137.7	82.2818	3,137.7	84.3951	3,137.7	80.1552	3,137.7	83.3574	3,137.7	76.9189	3,137.7	80.4509	3,137.7	77.1411	3,137.7	71.1347	3,137.7	75.9565	3,137.7	79.1003	3,137.7	72.0796	3,137.7	78.3616	3,137.7	70.2356	3,137.7	68.4277	3,137.7	68.0769	3,137.7	62.547	3,137.7	67.5012	3,137.7	70.8568	3,137.7	71.3889	3,137.7	63.6161	3,137.7	68.345	3,137.7	62.7618	3,137.7	60.268	3,137.7	59.3217	3,137.7	67.3547	3,137.7	72.3426	3,137.7	69.9705
3,249.02	87.2012	3,249.02	84.6076	3,249.02	85.0956	3,249.02	69.5656	3,249.02	78.8356	3,249.02	81.3561	3,249.02	73.5919	3,249.02	83.2534	3,249.02	83.0483	3,249.02	82.5199	3,249.02	83.6789	3,249.02	81.5479	3,249.02	83.1127	3,249.02	78.7628	3,249.02	80.8238	3,249.02	78.2404	3,249.02	75.2623	3,249.02	72.568	3,249.02	79.0358	3,249.02	72.3226	3,249.02	76.183	3,249.02	69.529	3,249.02	65.1123	3,249.02	71.8319	3,249.02	65.2988	3,249.02	66.0773	3,249.02	69.8554	3,249.02	72.4958	3,249.02	65.4271	3,249.02	67.6033	3,249.02	58.3453	3,249.02	63.4829	3,249.02	61.0765	3,249.02	65.7991	3,249.02	70.9968	3,249.02	68.272
3,363.28	87.523	3,363.28	84.2079	3,363.28	84.8424	3,363.28	74.3415	3,363.28	76.1041	3,363.28	81.8006	3,363.28	75.4926	3,363.28	83.7199	3,363.28	82.7402	3,363.28	83.3202	3,363.28	82.8252	3,363.28	81.4628	3,363.28	83.9543	3,363.28	79.5382	3,363.28	80.0075	3,363.28	75.3044	3,363.28	77.2841	3,363.28	74.385	3,363.28	79.1483	3,363.28	73.7084	3,363.28	72.0343	3,363.28	70.0727	3,363.28	64.6069	3,363.28	71.0235	3,363.28	65.5278	3,363.28	66.7288	3,363.28	67.9379	3,363.28	71.6913	3,363.28	67.9016	3,363.28	69.0434	3,363.28	57.7822	3,363.28	59.9037	3,363.28	64.412	3,363.28	65.771	3,363.28	70.3538	3,363.28	68.3959
3,481.93	87.5757	3,481.93	83.567	3,481.93	85.3952	3,481.93	76.771	3,481.93	73.8906	3,481.93	82.02	3,481.93	77.1766	3,481.93	84.0113	3,481.93	81.2542	3,481.93	83.1038	3,481.93	83.2018	3,481.93	81.3078	3,481.93	85.0294	3,481.93	77.3271	3,481.93	79.5141	3,481.93	76.7809	3,481.93	77.727	3,481.93	75.0491	3,481.93	75.84	3,481.93	69.9243	3,481.93	70.6393	3,481.93	70.0106	3,481.93	58.9169	3,481.93	68.6598	3,481.93	67.1394	3,481.93	67.1726	3,481.93	66.6875	3,481.93	70.582	3,481.93	68.5455	3,481.93	69.1725	3,481.93	52.8087	3,481.93	61.4412	3,481.93	64.7603	3,481.93	64.9648	3,481.93	70.0532	3,481.93	69.0073
3,604.98	86.7972	3,604.98	83.1743	3,604.98	85.1247	3,604.98	77.9583	3,604.98	74.0996	3,604.98	82.6881	3,604.98	78.9864	3,604.98	84.2745	3,604.98	81.3028	3,604.98	83.413	3,604.98	83.6198	3,604.98	80.627	3,604.98	84.6397	3,604.98	78.2952	3,604.98	80.3294	3,604.98	76.4613	3,604.98	75.482	3,604.98	71.7856	3,604.98	66.633	3,604.98	72.4562	3,604.98	70.0587	3,604.98	69.1642	3,604.98	67.3237	3,604.98	69.2374	3,604.98	67.2582	3,604.98	66.5952	3,604.98	65.0467	3,604.98	68.585	3,604.98	67.8101	3,604.98	68.5101	3,604.98	62.1149	3,604.98	63.8682	3,604.98	64.4519	3,604.98	62.7997	3,604.98	69.6346	3,604.98	68.8312
3,732.42	86.697	3,732.42	83.2746	3,732.42	84.8358	3,732.42	79.5222	3,732.42	74.428	3,732.42	83.8378	3,732.42	80.7728	3,732.42	84.2112	3,732.42	82.4853	3,732.42	82.8535	3,732.42	83.1632	3,732.42	80.3149	3,732.42	83.3059	3,732.42	78.0768	3,732.42	79.7024	3,732.42	74.9715	3,732.42	77.0067	3,732.42	74.0632	3,732.42	74.9065	3,732.42	70.6067	3,732.42	70.7677	3,732.42	70.4131	3,732.42	71.1114	3,732.42	66.6872	3,732.42	60.3669	3,732.42	67.8754	3,732.42	67.4504	3,732.42	67.0329	3,732.42	64.1781	3,732.42	67.0973	3,732.42	62.9788	3,732.42	62.8644	3,732.42	61.6053	3,732.42	53.1323	3,732.42	67.8572	3,732.42	67.827
3,864.26	86.0746	3,864.26	84.7486	3,864.26	85.0646	3,864.26	79.8623	3,864.26	77.2251	3,864.26	84.0488	3,864.26	82.5559	3,864.26	83.7634	3,864.26	82.9839	3,864.26	82.7858	3,864.26	82.8315	3,864.26	80.4253	3,864.26	82.5857	3,864.26	77.5393	3,864.26	79.4091	3,864.26	77.0603	3,864.26	75.35	3,864.26	73.613	3,864.26	75.5362	3,864.26	71.3923	3,864.26	69.3118	3,864.26	69.678	3,864.26	69.5869	3,864.26	68.3914	3,864.26	70.2154	3,864.26	66.5613	3,864.26	68.9876	3,864.26	65.1295	3,864.26	63.0925	3,864.26	68.4399	3,864.26	63.6031	3,864.26	61.6071	3,864.26	63.0392	3,864.26	54.4997	3,864.26	66.8848	3,864.26	67.8478
4,000.49	86.4993	4,000.49	84.201	4,000.49	84.3896	4,000.49	79.798	4,000.49	79.3128	4,000.49	84.5013	4,000.49	83.9071	4,000.49	84.2371	4,000.49	83.1382	4,000.49	82.4234	4,000.49	81.6298	4,000.49	79.2296	4,000.49	82.2015	4,000.49	77.3258	4,000.49	77.6483	4,000.49	73.7964	4,000.49	75.3541	4,000.49	73.5214	4,000.49	75.6499	4,000.49	71.1672	4,000.49	72.8815	4,000.49	69.1736	4,000.49	49.9557	4,000.49	68.7149	4,000.49	70.7191	4,000.49	67.4652	4,000.49	67.6274	4,000.49	66.2684	4,000.49	66.303	4,000.49	67.4878	4,000.49	63.2904	4,000.49	59.0077	4,000.49	65.6768	4,000.49	61.017	4,000.49	66.5241	4,000.49	67.9808
4,141.11	86.7774	4,141.11	83.934	4,141.11	83.7546	4,141.11	82.2241	4,141.11	80.1748	4,141.11	85.4159	4,141.11	84.9187	4,141.11	84.4642	4,141.11	83.5946	4,141.11	81.2891	4,141.11	81.5633	4,141.11	80.5348	4,141.11	81.8804	4,141.11	76.5712	4,141.11	77.4726	4,141.11	78.1152	4,141.11	77.1404	4,141.11	74.2454	4,141.11	78.6166	4,141.11	71.2719	4,141.11	70.9315	4,141.11	70.1146	4,141.11	68.6531	4,141.11	67.7522	4,141.11	68.4061	4,141.11	67.1718	4,141.11	65.3407	4,141.11	66.3435	4,141.11	67.2541	4,141.11	67.1229	4,141.11	61.5962	4,141.11	64.1916	4,141.11	64.8229	4,141.11	56.537	4,141.11	67.0756	4,141.11	68.5569
4,287.6	87.1776	4,287.6	84.5953	4,287.6	83.8767	4,287.6	83.4674	4,287.6	80.3592	4,287.6	84.3475	4,287.6	85.2486	4,287.6	82.9606	4,287.6	83.292	4,287.6	82.1933	4,287.6	80.2687	4,287.6	78.4413	4,287.6	79.2641	4,287.6	78.2069	4,287.6	79.2412	4,287.6	73.6844	4,287.6	79.563	4,287.6	73.2408	4,287.6	77.7046	4,287.6	70.7511	4,287.6	70.6335	4,287.6	68.1296	4,287.6	67.8317	4,287.6	68.5124	4,287.6	66.9905	4,287.6	66.9087	4,287.6	70.887	4,287.6	67.1422	4,287.6	65.107	4,287.6	63.4185	4,287.6	64.8925	4,287.6	64.9245	4,287.6	59.0691	4,287.6	37.5233	4,287.6	68.4529	4,287.6	66.8443
4,438.48	86.4215	4,438.48	83.7697	4,438.48	84.671	4,438.48	82.578	4,438.48	81.1547	4,438.48	85.2773	4,438.48	85.2377	4,438.48	84.1545	4,438.48	83.8759	4,438.48	81.3108	4,438.48	77.4073	4,438.48	79.9476	4,438.48	77.1538	4,438.48	76.4341	4,438.48	80.3457	4,438.48	76.588	4,438.48	80.8526	4,438.48	73.5519	4,438.48	73.0004	4,438.48	69.3801	4,438.48	71.2114	4,438.48	70.7391	4,438.48	64.952	4,438.48	67.6339	4,438.48	69.2581	4,438.48	67.798	4,438.48	71.4029	4,438.48	66.0442	4,438.48	58.6702	4,438.48	64.7727	4,438.48	67.4781	4,438.48	61.1066	4,438.48	56.5592	4,438.48	53.5967	4,438.48	68.4174	4,438.48	60.7074
4,595.21	87.2734	4,595.21	83.959	4,595.21	84.878	4,595.21	84.1436	4,595.21	82.7526	4,595.21	85.4535	4,595.21	85.3568	4,595.21	82.1612	4,595.21	82.9665	4,595.21	81.8615	4,595.21	74.1175	4,595.21	77.9509	4,595.21	80.7164	4,595.21	77.9178	4,595.21	82.155	4,595.21	74.2194	4,595.21	79.0462	4,595.21	73.4183	4,595.21	69.8271	4,595.21	71.4594	4,595.21	65.419	4,595.21	67.4626	4,595.21	65.4021	4,595.21	67.5312	4,595.21	68.6222	4,595.21	67.3346	4,595.21	68.6036	4,595.21	67.9157	4,595.21	63.2169	4,595.21	66.0521	4,595.21	62.7451	4,595.21	61.9005	4,595.21	61.5002	4,595.21	58.5782	4,595.21	66.8566	4,595.21	63.1166
4,756.35	87.0715	4,756.35	84.704	4,756.35	83.9356	4,756.35	85.0084	4,756.35	83.4647	4,756.35	84.1528	4,756.35	84.8821	4,756.35	83.5208	4,756.35	81.2712	4,756.35	81.4821	4,756.35	75.5111	4,756.35	78.8283	4,756.35	82.156	4,756.35	76.3474	4,756.35	82.3929	4,756.35	76.5957	4,756.35	75.6807	4,756.35	72.6832	4,756.35	71.8394	4,756.35	69.7394	4,756.35	53.8358	4,756.35	69.8322	4,756.35	55.6087	4,756.35	66.9561	4,756.35	55.6876	4,756.35	68.2905	4,756.35	63.0946	4,756.35	65.7561	4,756.35	60.9923	4,756.35	65.9223	4,756.35	61.6205	4,756.35	60.9327	4,756.35	60.918	4,756.35	52.2451	4,756.35	64.9706	4,756.35	62.9977
4,924.8	86.6829	4,924.8	84.5699	4,924.8	85.4248	4,924.8	84.7036	4,924.8	83.9387	4,924.8	85.0339	4,924.8	84.1234	4,924.8	82.706	4,924.8	80.7698	4,924.8	80.5279	4,924.8	76.4796	4,924.8	79.0596	4,924.8	81.8559	4,924.8	78.2871	4,924.8	79.4305	4,924.8	74.653	4,924.8	72.7065	4,924.8	72.6676	4,924.8	72.205	4,924.8	69.7446	4,924.8	49.0532	4,924.8	66.7431	4,924.8	65.804	4,924.8	66.8899	4,924.8	61.5141	4,924.8	67.5229	4,924.8	50.0657	4,924.8	64.5613	4,924.8	47.1877	4,924.8	66.7428	4,924.8	63.7732	4,924.8	63.5033	4,924.8	56.4672	4,924.8	56.0516	4,924.8	66.7824	4,924.8	61.8233
5,097.66	87.32	5,097.66	85.7088	5,097.66	85.1536	5,097.66	85.1329	5,097.66	84.2326	5,097.66	84.8821	5,097.66	83.9016	5,097.66	82.2029	5,097.66	81.4802	5,097.66	81.3246	5,097.66	77.7353	5,097.66	78.7887	5,097.66	80.9045	5,097.66	76.3881	5,097.66	75.2203	5,097.66	73.8447	5,097.66	74.3639	5,097.66	71.3671	5,097.66	71.7784	5,097.66	67.5654	5,097.66	56.8941	5,097.66	67.7057	5,097.66	69.0502	5,097.66	66.0141	5,097.66	64.6338	5,097.66	66.1889	5,097.66	57.441	5,097.66	62.6495	5,097.66	64.0412	5,097.66	65.4187	5,097.66	61.9122	5,097.66	59.4082	5,097.66	53.4245	5,097.66	47.9403	5,097.66	65.473	5,097.66	59.697
5,277.83	86.7072	5,277.83	85.7863	5,277.83	85.7533	5,277.83	85.0526	5,277.83	84.647	5,277.83	85.0808	5,277.83	84.8562	5,277.83	81.7119	5,277.83	82.205	5,277.83	81.3049	5,277.83	77.3068	5,277.83	77.5189	5,277.83	78.169	5,277.83	76.9484	5,277.83	75.6606	5,277.83	72.6595	5,277.83	75.3076	5,277.83	72.0047	5,277.83	74.2073	5,277.83	68.3877	5,277.83	65.7712	5,277.83	68.0223	5,277.83	66.1921	5,277.83	65.6059	5,277.83	60.5217	5,277.83	66.1119	5,277.83	54.6402	5,277.83	62.7557	5,277.83	58.2452	5,277.83	65.5534	5,277.83	64.3041	5,277.83	63.6487	5,277.83	52.6539	5,277.83	56.7912	5,277.83	66.4806	5,277.83	58.7055
5,463.87	87.3599	5,463.87	86.3299	5,463.87	85.0818	5,463.87	84.9862	5,463.87	85.8184	5,463.87	84.9673	5,463.87	85.3719	5,463.87	81.3844	5,463.87	82.4678	5,463.87	80.9813	5,463.87	76.5187	5,463.87	77.9693	5,463.87	75.5116	5,463.87	76.0572	5,463.87	76.4097	5,463.87	73.8411	5,463.87	74.7723	5,463.87	70.9579	5,463.87	74.4671	5,463.87	67.4854	5,463.87	65.1178	5,463.87	66.1129	5,463.87	64.8116	5,463.87	65.734	5,463.87	51.9578	5,463.87	64.2498	5,463.87	60.1197	5,463.87	64.1954	5,463.87	60.0054	5,463.87	63.6376	5,463.87	63.8722	5,463.87	63.4345	5,463.87	50.4084	5,463.87	56.9541	5,463.87	64.2619	5,463.87	59.1077
5,657.23	87.7588	5,657.23	85.7487	5,657.23	85.0374	5,657.23	85.7519	5,657.23	86.2261	5,657.23	84.537	5,657.23	84.4905	5,657.23	82.0058	5,657.23	82.6598	5,657.23	80.2462	5,657.23	75.7812	5,657.23	77.9568	5,657.23	74.7644	5,657.23	75.7402	5,657.23	77.4303	5,657.23	70.9679	5,657.23	75.2981	5,657.23	70.2176	5,657.23	70.9993	5,657.23	67.2922	5,657.23	50.1281	5,657.23	64.9824	5,657.23	63.5366	5,657.23	64.6822	5,657.23	46.539	5,657.23	64.9176	5,657.23	61.3776	5,657.23	62.9503	5,657.23	54.9036	5,657.23	64.2585	5,657.23	63.9884	5,657.23	64.0727	5,657.23	55.8165	5,657.23	59.6254	5,657.23	63.934	5,657.23	59.1889
5,856.45	87.7864	5,856.45	86.2846	5,856.45	84.9263	5,856.45	86.1028	5,856.45	85.7522	5,856.45	84.1914	5,856.45	83.2721	5,856.45	81.3239	5,856.45	82.2615	5,856.45	80.7106	5,856.45	74.7573	5,856.45	76.896	5,856.45	75.9975	5,856.45	74.9248	5,856.45	78.2332	5,856.45	71.9181	5,856.45	76.8047	5,856.45	69.211	5,856.45	72.7404	5,856.45	66.4935	5,856.45	64.1026	5,856.45	64.9501	5,856.45	66.8141	5,856.45	64.3244	5,856.45	41.6348	5,856.45	66.1175	5,856.45	55.0718	5,856.45	62.6624	5,856.45	54.6317	5,856.45	62.3635	5,856.45	58.6821	5,856.45	65.3405	5,856.45	57.8769	5,856.45	54.598	5,856.45	61.9756	5,856.45	60.0027
6,062.99	87.5235	6,062.99	86.0923	6,062.99	84.9063	6,062.99	86.0285	6,062.99	86.3981	6,062.99	84.1877	6,062.99	81.8512	6,062.99	81.7417	6,062.99	81.8511	6,062.99	80.3327	6,062.99	75.7508	6,062.99	75.8016	6,062.99	76.1573	6,062.99	74.509	6,062.99	78.8552	6,062.99	70.9457	6,062.99	76.8481	6,062.99	70.5862	6,062.99	73.7211	6,062.99	67.7495	6,062.99	61.5042	6,062.99	65.0755	6,062.99	70.1148	6,062.99	65.3774	6,062.99	56.1552	6,062.99	65.4629	6,062.99	50.9958	6,062.99	62.564	6,062.99	58.1542	6,062.99	62.9736	6,062.99	60.3244	6,062.99	65.7248	6,062.99	57.2939	6,062.99	59.1532	6,062.99	57.5147	6,062.99	58.8088
6,276.86	87.8959	6,276.86	86.2284	6,276.86	85.6481	6,276.86	86.2315	6,276.86	87.3958	6,276.86	83.9633	6,276.86	82.0281	6,276.86	81.7898	6,276.86	81.7789	6,276.86	80.0019	6,276.86	75.9226	6,276.86	75.7443	6,276.86	74.3371	6,276.86	75.1225	6,276.86	78.765	6,276.86	71.9522	6,276.86	75.7795	6,276.86	69.5075	6,276.86	72.354	6,276.86	67.076	6,276.86	65.7265	6,276.86	64.9587	6,276.86	71.3324	6,276.86	65.0349	6,276.86	61.0882	6,276.86	65.6533	6,276.86	54.8643	6,276.86	64.0857	6,276.86	53.1418	6,276.86	62.5524	6,276.86	56.2979	6,276.86	65.5581	6,276.86	55.1981	6,276.86	60.326	6,276.86	59.7877	6,276.86	56.3913
6,498.05	88.0295	6,498.05	86.2137	6,498.05	85.2251	6,498.05	86.0759	6,498.05	86.9752	6,498.05	83.6695	6,498.05	82.6377	6,498.05	81.6026	6,498.05	81.261	6,498.05	79.9823	6,498.05	77.8046	6,498.05	76.4828	6,498.05	73.7931	6,498.05	75.3376	6,498.05	78.1509	6,498.05	72.8685	6,498.05	71.6771	6,498.05	69.8336	6,498.05	72.6584	6,498.05	66.9595	6,498.05	65.8864	6,498.05	65.0183	6,498.05	67.3485	6,498.05	64.3895	6,498.05	56.6228	6,498.05	64.9509	6,498.05	49.5118	6,498.05	64.631	6,498.05	59.6743	6,498.05	63.2173	6,498.05	62.1743	6,498.05	65.786	6,498.05	50.7299	6,498.05	62.0845	6,498.05	59.4314	6,498.05	56.5924
6,726.56	87.7962	6,726.56	86.2964	6,726.56	84.0821	6,726.56	86.3268	6,726.56	85.589	6,726.56	83.5754	6,726.56	83.1761	6,726.56	81.5807	6,726.56	81.4048	6,726.56	79.7214	6,726.56	77.969	6,726.56	76.7281	6,726.56	75.8839	6,726.56	75.4396	6,726.56	74.8901	6,726.56	71.9706	6,726.56	71.5008	6,726.56	69.5327	6,726.56	71.4264	6,726.56	66.5212	6,726.56	62.2873	6,726.56	64.2123	6,726.56	57.6446	6,726.56	63.7866	6,726.56	54.5227	6,726.56	62.8698	6,726.56	55.9206	6,726.56	64.677	6,726.56	57.7834	6,726.56	61.6255	6,726.56	59.3468	6,726.56	64.4593	6,726.56	50.4177	6,726.56	62.6271	6,726.56	59.8504	6,726.56	49.5108
6,963.87	88.0462	6,963.87	86.4207	6,963.87	85.625	6,963.87	86.3721	6,963.87	85.9489	6,963.87	83.4856	6,963.87	82.5516	6,963.87	81.7074	6,963.87	81.3807	6,963.87	79.8593	6,963.87	79.246	6,963.87	77.0529	6,963.87	75.1329	6,963.87	75.6175	6,963.87	73.7868	6,963.87	71.7944	6,963.87	75.1004	6,963.87	68.2776	6,963.87	70.5678	6,963.87	66.1636	6,963.87	60.4119	6,963.87	62.144	6,963.87	66.5685	6,963.87	62.8825	6,963.87	58.3858	6,963.87	62.9662	6,963.87	49.0041	6,963.87	62.787	6,963.87	58.2167	6,963.87	61.8349	6,963.87	61.2102	6,963.87	64.7692	6,963.87	50.4052	6,963.87	60.1723	6,963.87	57.5259	6,963.87	53.0997
7,209.96	88.0962	7,209.96	86.3044	7,209.96	85.6764	7,209.96	86.1918	7,209.96	86.4546	7,209.96	83.6647	7,209.96	81.803	7,209.96	81.7395	7,209.96	81.1632	7,209.96	79.587	7,209.96	79.0193	7,209.96	77.5121	7,209.96	72.3858	7,209.96	75.0513	7,209.96	75.6531	7,209.96	71.4626	7,209.96	75.7155	7,209.96	67.3174	7,209.96	69.2917	7,209.96	65.1466	7,209.96	61.8462	7,209.96	62.6706	7,209.96	65.5322	7,209.96	62.9323	7,209.96	57.8818	7,209.96	63.3863	7,209.96	49.005	7,209.96	60.8348	7,209.96	60.2521	7,209.96	60.7208	7,209.96	59.1679	7,209.96	65.4156	7,209.96	54.9534	7,209.96	62.0599	7,209.96	57.6434	7,209.96	53.4517
7,464.84	88.1785	7,464.84	86.1608	7,464.84	84.6449	7,464.84	86.3394	7,464.84	86.0722	7,464.84	83.0707	7,464.84	82.6238	7,464.84	81.7078	7,464.84	80.2326	7,464.84	79.5254	7,464.84	79.2033	7,464.84	77.528	7,464.84	70.0071	7,464.84	74.3587	7,464.84	76.2514	7,464.84	69.9528	7,464.84	71.9645	7,464.84	67.6609	7,464.84	69.9279	7,464.84	64.9496	7,464.84	64.6971	7,464.84	61.9042	7,464.84	62.01	7,464.84	62.3841	7,464.84	52.9634	7,464.84	62.4012	7,464.84	41.6468	7,464.84	61.156	7,464.84	58.0226	7,464.84	61.8101	7,464.84	51.1431	7,464.84	64.7828	7,464.84	58.0709	7,464.84	61.7082	7,464.84	58.2901	7,464.84	51.042
7,727.05	87.7609	7,727.05	85.8901	7,727.05	85.4294	7,727.05	85.9127	7,727.05	85.2391	7,727.05	83.04	7,727.05	83.7743	7,727.05	81.3236	7,727.05	78.5453	7,727.05	80.0246	7,727.05	78.6199	7,727.05	76.8096	7,727.05	72.9053	7,727.05	72.7063	7,727.05	75.45	7,727.05	68.8232	7,727.05	67.9712	7,727.05	67.3103	7,727.05	69.836	7,727.05	64.9904	7,727.05	65.4173	7,727.05	60.5721	7,727.05	61.085	7,727.05	62.477	7,727.05	55.6482	7,727.05	62.9235	7,727.05	46.7541	7,727.05	62.2486	7,727.05	53.7882	7,727.05	58.5305	7,727.05	53.3342	7,727.05	63.4776	7,727.05	56.1706	7,727.05	62.8874	7,727.05	53.3451	7,727.05	55.196
7,999.51	87.3709	7,999.51	86.4488	7,999.51	85.9373	7,999.51	85.6314	7,999.51	84.94	7,999.51	83.1094	7,999.51	82.977	7,999.51	81.203	7,999.51	80.2084	7,999.51	79.7076	7,999.51	77.6701	7,999.51	75.9073	7,999.51	72.6812	7,999.51	72.8456	7,999.51	68.2336	7,999.51	70.2808	7,999.51	71.7987	7,999.51	66.7513	7,999.51	67.2563	7,999.51	64.6972	7,999.51	64.5716	7,999.51	59.3768	7,999.51	58.0248	7,999.51	60.3216	7,999.51	52.595	7,999.51	63.612	7,999.51	48.5692	7,999.51	61.7699	7,999.51	55.8891	7,999.51	57.0261	7,999.51	59.6184	7,999.51	63.5298	7,999.51	32.8474	7,999.51	61.1286	7,999.51	56.9879	7,999.51	48.345
8,282.23	87.3936	8,282.23	86.4286	8,282.23	85.7037	8,282.23	85.4149	8,282.23	84.8902	8,282.23	83.2937	8,282.23	81.5479	8,282.23	80.7977	8,282.23	81.1611	8,282.23	79.122	8,282.23	77.0238	8,282.23	75.5232	8,282.23	72.4298	8,282.23	72.6559	8,282.23	66.4593	8,282.23	69.2465	8,282.23	73.5714	8,282.23	63.3908	8,282.23	67.8792	8,282.23	64.1452	8,282.23	66.987	8,282.23	56.8667	8,282.23	59.7562	8,282.23	58.9393	8,282.23	56.4031	8,282.23	61.2198	8,282.23	42.7678	8,282.23	59.5562	8,282.23	56.957	8,282.23	59.3308	8,282.23	57.9395	8,282.23	62.4259	8,282.23	48.4151	8,282.23	62.7801	8,282.23	57.1451	8,282.23	54.4577
8,573.73	87.8645	8,573.73	86.6259	8,573.73	86.1877	8,573.73	85.7312	8,573.73	84.8597	8,573.73	83.0933	8,573.73	81.3122	8,573.73	80.8615	8,573.73	80.8328	8,573.73	78.6438	8,573.73	77.9768	8,573.73	75.2377	8,573.73	70.0698	8,573.73	71.5811	8,573.73	71.9385	8,573.73	68.2189	8,573.73	71.6816	8,573.73	64.8333	8,573.73	68.2827	8,573.73	63.093	8,573.73	63.2402	8,573.73	57.5881	8,573.73	54.8229	8,573.73	60.2711	8,573.73	49.1961	8,573.73	59.9949	8,573.73	46.0905	8,573.73	57.4462	8,573.73	57.5914	8,573.73	59.4131	8,573.73	49.9487	8,573.73	62.7765	8,573.73	44.9374	8,573.73	60.7195	8,573.73	54.3333	8,573.73	46.1821
8,876.95	87.807	8,876.95	86.8255	8,876.95	86.3468	8,876.95	85.9758	8,876.95	86.0337	8,876.95	82.8851	8,876.95	83.3744	8,876.95	80.7323	8,876.95	81.0194	8,876.95	77.9147	8,876.95	79.1823	8,876.95	75.2396	8,876.95	69.3803	8,876.95	72.0794	8,876.95	71.8545	8,876.95	68.9855	8,876.95	69.5779	8,876.95	65.7003	8,876.95	67.4797	8,876.95	61.9161	8,876.95	64.5802	8,876.95	58.7278	8,876.95	57.8107	8,876.95	59.7593	8,876.95	55.6511	8,876.95	58.5213	8,876.95	39.6569	8,876.95	58.0828	8,876.95	58.5297	8,876.95	59.3919	8,876.95	50.6423	8,876.95	62.772	8,876.95	54.9377	8,876.95	60.5779	8,876.95	56.1213	8,876.95	50.1654
9,188.96	88.0613	9,188.96	86.9352	9,188.96	86.6995	9,188.96	86.2865	9,188.96	85.6823	9,188.96	83.0275	9,188.96	83.2682	9,188.96	79.9462	9,188.96	79.088	9,188.96	77.9168	9,188.96	78.7675	9,188.96	74.5049	9,188.96	71.3591	9,188.96	71.2598	9,188.96	68.3458	9,188.96	66.6376	9,188.96	70.1349	9,188.96	62.5749	9,188.96	64.6186	9,188.96	59.4971	9,188.96	64.574	9,188.96	56.2926	9,188.96	54.8182	9,188.96	57.7135	9,188.96	53.298	9,188.96	59.3593	9,188.96	45.7304	9,188.96	56.9168	9,188.96	51.0301	9,188.96	55.0416	9,188.96	39.9153	9,188.96	60.319	9,188.96	52.9893	9,188.96	60.6194	9,188.96	51.4751	9,188.96	46.9468
9,514.16	87.7871	9,514.16	87.026	9,514.16	87.1886	9,514.16	86.2534	9,514.16	85.6353	9,514.16	82.8687	9,514.16	82.0714	9,514.16	80.0336	9,514.16	79.5454	9,514.16	77.1686	9,514.16	75.2841	9,514.16	74.7477	9,514.16	72.7628	9,514.16	69.387	9,514.16	63.3151	9,514.16	66.593	9,514.16	70.0561	9,514.16	63.6346	9,514.16	63.7192	9,514.16	60.227	9,514.16	62.2246	9,514.16	55.1683	9,514.16	56.3128	9,514.16	57.7386	9,514.16	52.277	9,514.16	59.2774	9,514.16	47.9629	9,514.16	57.1444	9,514.16	52.6779	9,514.16	54.059	9,514.16	48.27	9,514.16	59.6977	9,514.16	50.1794	9,514.16	59.5973	9,514.16	50.5251	9,514.16	51.5566
9,849.61	87.926	9,849.61	87.1523	9,849.61	87.398	9,849.61	86.3569	9,849.61	85.6614	9,849.61	82.5004	9,849.61	81.9641	9,849.61	79.8715	9,849.61	79.5635	9,849.61	76.8836	9,849.61	74.8624	9,849.61	73.6067	9,849.61	71.3828	9,849.61	70.1103	9,849.61	65.196	9,849.61	64.456	9,849.61	69.5989	9,849.61	62.4266	9,849.61	59.9198	9,849.61	58.847	9,849.61	60.3279	9,849.61	54.7936	9,849.61	40.4193	9,849.61	55.6861	9,849.61	48.6391	9,849.61	57.5242	9,849.61	49.7411	9,849.61	55.5659	9,849.61	50.695	9,849.61	53.5338	9,849.61	45.9606	9,849.61	56.8894	9,849.61	48.9997	9,849.61	59.5597	9,849.61	53.782	9,849.61	50.3688
10,196.8	88.0963	10,196.8	87.5925	10,196.8	87.3876	10,196.8	86.4013	10,196.8	85.5331	10,196.8	82.3436	10,196.8	82.9584	10,196.8	79.6494	10,196.8	78.2396	10,196.8	76.5949	10,196.8	76.8425	10,196.8	72.9818	10,196.8	69.728	10,196.8	68.8862	10,196.8	65.0967	10,196.8	64.9527	10,196.8	68.8895	10,196.8	62.7268	10,196.8	63.8475	10,196.8	58.8066	10,196.8	61.9862	10,196.8	55.7283	10,196.8	56.1275	10,196.8	57.9851	10,196.8	41.9512	10,196.8	57.8848	10,196.8	37.4295	10,196.8	55.2756	10,196.8	52.9479	10,196.8	55.496	10,196.8	46.7092	10,196.8	57.0314	10,196.8	46.6587	10,196.8	59.2553	10,196.8	51.8863	10,196.8	52.2525
10,555.7	88.3139	10,555.7	87.8592	10,555.7	87.7466	10,555.7	86.4667	10,555.7	85.5322	10,555.7	82.2178	10,555.7	82.9038	10,555.7	79.2708	10,555.7	77.6164	10,555.7	75.9429	10,555.7	77.2116	10,555.7	72.8177	10,555.7	69.7708	10,555.7	69.08	10,555.7	64.9777	10,555.7	64.9348	10,555.7	64.3126	10,555.7	63.0148	10,555.7	58.9219	10,555.7	58.9877	10,555.7	64.0164	10,555.7	55.3674	10,555.7	62.1552	10,555.7	56.6027	10,555.7	54.348	10,555.7	57.0245	10,555.7	43.1544	10,555.7	55.439	10,555.7	49.1082	10,555.7	52.4108	10,555.7	36.676	10,555.7	57.1955	10,555.7	52.4487	10,555.7	59.7403	10,555.7	52.3096	10,555.7	51.3907
10,927.7	88.0763	10,927.7	88.0143	10,927.7	87.6736	10,927.7	86.4608	10,927.7	85.2108	10,927.7	81.9179	10,927.7	81.006	10,927.7	78.9285	10,927.7	76.9773	10,927.7	75.1931	10,927.7	75.8633	10,927.7	73.2205	10,927.7	71.8007	10,927.7	69.4123	10,927.7	64.0742	10,927.7	66.1045	10,927.7	63.7363	10,927.7	63.3972	10,927.7	59.7051	10,927.7	59.5328	10,927.7	64.694	10,927.7	54.2344	10,927.7	60.5024	10,927.7	58.0638	10,927.7	51.1316	10,927.7	58.1901	10,927.7	49.0924	10,927.7	54.8117	10,927.7	40.4534	10,927.7	54.8216	10,927.7	49.7381	10,927.7	55.4289	10,927.7	52.6639	10,927.7	58.799	10,927.7	53.6263	10,927.7	47.4028
11,313	87.8683	11,313	87.9144	11,313	87.7777	11,313	86.156	11,313	85.5905	11,313	81.9271	11,313	80.4402	11,313	78.459	11,313	78.0165	11,313	75.3407	11,313	76.707	11,313	73.9446	11,313	72.0758	11,313	70.1586	11,313	66.2855	11,313	66.205	11,313	67.1005	11,313	63.7462	11,313	64.5175	11,313	59.6437	11,313	63.4636	11,313	55.7999	11,313	58.9981	11,313	57.6782	11,313	41.0233	11,313	59.0523	11,313	34.1523	11,313	54.506	11,313	41.9348	11,313	55.6413	11,313	47.8739	11,313	55.0155	11,313	52.5976	11,313	58.4864	11,313	51.4837	11,313	51.5107
11,712.9	87.6046	11,712.9	87.6318	11,712.9	87.3873	11,712.9	85.8424	11,712.9	85.2089	11,712.9	81.9485	11,712.9	81.8324	11,712.9	78.5512	11,712.9	77.5798	11,712.9	75.9385	11,712.9	77.8737	11,712.9	75.2017	11,712.9	73.5208	11,712.9	70.8797	11,712.9	71.1198	11,712.9	67.2015	11,712.9	66.1121	11,712.9	64.3265	11,712.9	62.7154	11,712.9	60.6162	11,712.9	63.3535	11,712.9	56.5665	11,712.9	62.3298	11,712.9	58.177	11,712.9	49.3282	11,712.9	60.4093	11,712.9	51.4278	11,712.9	54.9565	11,712.9	50.2259	11,712.9	55.9563	11,712.9	47.6437	11,712.9	53.0576	11,712.9	47.8999	11,712.9	59.3464	11,712.9	54.4358	11,712.9	52.3394
12,126	86.7631	12,126	87.0018	12,126	86.7959	12,126	85.0542	12,126	84.6255	12,126	81.9075	12,126	81.3135	12,126	79.3586	12,126	79.6417	12,126	77.2934	12,126	77.0675	12,126	76.2107	12,126	74.6109	12,126	71.8988	12,126	72.3507	12,126	67.3011	12,126	64.9987	12,126	64.8757	12,126	62.2067	12,126	61.3931	12,126	67.0089	12,126	56.4571	12,126	66.4399	12,126	60.3558	12,126	53.7966	12,126	60.9861	12,126	46.1171	12,126	56.1812	12,126	49.3075	12,126	57.5134	12,126	50.568	12,126	54.5831	12,126	50.5682	12,126	60.0111	12,126	54.9685	12,126	55.3742
12,553.7	85.3476	12,553.7	86.2135	12,553.7	85.6351	12,553.7	84.7298	12,553.7	84.1294	12,553.7	82.4594	12,553.7	81.2146	12,553.7	81.036	12,553.7	79.9625	12,553.7	78.8187	12,553.7	79.1562	12,553.7	77.0987	12,553.7	75.8726	12,553.7	73.1623	12,553.7	73.1426	12,553.7	69.3787	12,553.7	63.7043	12,553.7	65.9797	12,553.7	60.8222	12,553.7	61.8457	12,553.7	68.1471	12,553.7	57.8472	12,553.7	65.7405	12,553.7	61.2169	12,553.7	50.8404	12,553.7	59.9494	12,553.7	41.4022	12,553.7	57.7557	12,553.7	46.4279	12,553.7	59.0131	12,553.7	50.2678	12,553.7	54.851	12,553.7	51.7206	12,553.7	60.6413	12,553.7	56.0821	12,553.7	55.1986
12,996.1	85.1992	12,996.1	85.5907	12,996.1	85.39	12,996.1	85.8783	12,996.1	85.3375	12,996.1	83.1438	12,996.1	84.2503	12,996.1	82.2263	12,996.1	80.444	12,996.1	78.771	12,996.1	79.3063	12,996.1	77.2962	12,996.1	77.3032	12,996.1	73.7469	12,996.1	74.4088	12,996.1	68.4909	12,996.1	64.9044	12,996.1	65.9403	12,996.1	62.2624	12,996.1	61.4129	12,996.1	68.7931	12,996.1	54.9017	12,996.1	67.8629	12,996.1	61.316	12,996.1	52.0219	12,996.1	61.1765	12,996.1	48.1898	12,996.1	57.2641	12,996.1	43.7553	12,996.1	56.4427	12,996.1	46.4822	12,996.1	53.7322	12,996.1	54.5927	12,996.1	59.4903	12,996.1	53.646	12,996.1	54.8794
13,454.6	86.4579	13,454.6	86.1256	13,454.6	86.4587	13,454.6	86.6322	13,454.6	85.9852	13,454.6	83.8539	13,454.6	84.3117	13,454.6	82.5875	13,454.6	81.3062	13,454.6	78.9097	13,454.6	79.3217	13,454.6	77.6913	13,454.6	77.4854	13,454.6	73.8955	13,454.6	72.8253	13,454.6	68.2575	13,454.6	62.8597	13,454.6	64.0192	13,454.6	61.0778	13,454.6	61.1482	13,454.6	71.033	13,454.6	55.198	13,454.6	70.5762	13,454.6	61.4045	13,454.6	54.192	13,454.6	60.769	13,454.6	50.5982	13,454.6	55.7378	13,454.6	46.896	13,454.6	55.6613	13,454.6	51.6533	13,454.6	48.6137	13,454.6	55.0076	13,454.6	57.0606	13,454.6	50.087	13,454.6	53.0526
13,929.2	86.0823	13,929.2	85.4785	13,929.2	86.0234	13,929.2	86.5753	13,929.2	86.5472	13,929.2	84.2925	13,929.2	84.8068	13,929.2	83.2181	13,929.2	81.2639	13,929.2	79.8007	13,929.2	81.5819	13,929.2	78.6274	13,929.2	77.1374	13,929.2	73.7638	13,929.2	73.0197	13,929.2	66.7826	13,929.2	61.7689	13,929.2	65.1952	13,929.2	59.0539	13,929.2	56.8838	13,929.2	70.8154	13,929.2	57.0196	13,929.2	70.0708	13,929.2	61.1167	13,929.2	51.1688	13,929.2	57.9053	13,929.2	46.0571	13,929.2	56.2525	13,929.2	35.2062	13,929.2	54.2896	13,929.2	50.7085	13,929.2	47.1707	13,929.2	46.1151	13,929.2	56.4179	13,929.2	47.531	13,929.2	55.357
14,419.9	85.3756	14,419.9	84.9257	14,419.9	84.7092	14,419.9	86.2008	14,419.9	85.4925	14,419.9	84.7931	14,419.9	85.0549	14,419.9	83.0538	14,419.9	81.519	14,419.9	80.4492	14,419.9	79.7564	14,419.9	78.4208	14,419.9	77.4499	14,419.9	71.6369	14,419.9	69.6154	14,419.9	66.2856	14,419.9	64.0256	14,419.9	62.6157	14,419.9	53.4347	14,419.9	56.1427	14,419.9	69.9745	14,419.9	54.9902	14,419.9	69.5719	14,419.9	58.549	14,419.9	54.2257	14,419.9	57.0528	14,419.9	43.0768	14,419.9	56.2826	14,419.9	45.0516	14,419.9	50.5833	14,419.9	43.0895	14,419.9	49.3275	14,419.9	40.0862	14,419.9	54.5887	14,419.9	45.6154	14,419.9	55.3701
14,928.2	85.0091	14,928.2	85.1969	14,928.2	85.1841	14,928.2	85.452	14,928.2	84.7709	14,928.2	83.9342	14,928.2	83.1567	14,928.2	81.9698	14,928.2	79.8945	14,928.2	78.8737	14,928.2	77.8272	14,928.2	76.1579	14,928.2	74.629	14,928.2	68.9878	14,928.2	64.9099	14,928.2	62.8792	14,928.2	58.783	14,928.2	60.2418	14,928.2	43.9677	14,928.2	52.2487	14,928.2	68.1504	14,928.2	52.776	14,928.2	68.008	14,928.2	54.0914	14,928.2	54.9014	14,928.2	54.5572	14,928.2	45.7954	14,928.2	51.7474	14,928.2	41.3752	14,928.2	49.5	14,928.2	44.9001	14,928.2	49.3101	14,928.2	48.2385	14,928.2	53.6987	14,928.2	46.9404	14,928.2	51.5367
15,455.6	85.4918	15,455.6	85.4235	15,455.6	84.9123	15,455.6	84.5158	15,455.6	83.3172	15,455.6	81.975	15,455.6	81.5181	15,455.6	79.6763	15,455.6	76.6995	15,455.6	75.7263	15,455.6	73.2732	15,455.6	72.5752	15,455.6	68.5641	15,455.6	65.403	15,455.6	58.4101	15,455.6	58.7102	15,455.6	52.3264	15,455.6	56.0185	15,455.6	47.2501	15,455.6	43.8309	15,455.6	65.0961	15,455.6	48.5636	15,455.6	64.8247	15,455.6	49.6009	15,455.6	53.7086	15,455.6	50.7006	15,455.6	43.8377	15,455.6	48.2927	15,455.6	40.5262	15,455.6	43.8738	15,455.6	43.0215	15,455.6	40.2016	15,455.6	42.9721	15,455.6	42.4411	15,455.6	40.6977	15,455.6	44.0861
16,000.5	85.486	16,000.5	85.1866	16,000.5	84.7122	16,000.5	83.6733	16,000.5	82.0311	16,000.5	79.6852	16,000.5	78.6031	16,000.5	76.7353	16,000.5	73.2258	16,000.5	71.7199	16,000.5	66.7451	16,000.5	68.1936	16,000.5	61.3723	16,000.5	60.8987	16,000.5	47.5901	16,000.5	52.3159	16,000.5	43.0554	16,000.5	50.4017	16,000.5	44.5995	16,000.5	36.9251	16,000.5	60.5466	16,000.5	40.6026	16,000.5	60.2834	16,000.5	43.8191	16,000.5	49.5549	16,000.5	46.0893	16,000.5	38.0346	16,000.5	42.2203	16,000.5	31.5906	16,000.5	37.7454	16,000.5	33.9416	16,000.5	32.2676	16,000.5	28.9891	16,000.5	27.7223	16,000.5	30.8143	16,000.5	37.0407
16,564.5	85.2394	16,564.5	84.7934	16,564.5	84.1958	16,564.5	82.7931	16,564.5	81.0954	16,564.5	77.778	16,564.5	75.9464	16,564.5	73.6308	16,564.5	67.2475	16,564.5	68.1998	16,564.5	58.0426	16,564.5	64.341	16,564.5	52.1385	16,564.5	58.5621	16,564.5	49.4281	16,564.5	51.0839	16,564.5	44.5595	16,564.5	48.6694	16,564.5	45.7037	16,564.5	41.7281	16,564.5	54.8694	16,564.5	37.6653	16,564.5	54.5688	16,564.5	42.2001	16,564.5	44.3959	16,564.5	43.419	16,564.5	37.5512	16,564.5	40.2628	16,564.5	27.5831	16,564.5	39.4873	16,564.5	9.07533	16,564.5	24.0598	16,564.5	32.1959	16,564.5	37.5086	16,564.5	32.9431	16,564.5	36.9421
17,148.9	85.0314	17,148.9	84.3379	17,148.9	83.7317	17,148.9	81.8731	17,148.9	79.9624	17,148.9	75.484	17,148.9	73.1914	17,148.9	70.035	17,148.9	58.2182	17,148.9	64.8568	17,148.9	49.7543	17,148.9	62.3656	17,148.9	58.4252	17,148.9	56.8727	17,148.9	53.6998	17,148.9	50.5845	17,148.9	50.1277	17,148.9	46.9699	17,148.9	46.2352	17,148.9	37.9141	17,148.9	52.3415	17,148.9	34.6212	17,148.9	48.2892	17,148.9	32.4603	17,148.9	41.8295	17,148.9	41.5961	17,148.9	38.6029	17,148.9	42.1471	17,148.9	41.5536	17,148.9	37.2629	17,148.9	30.6899	17,148.9	20.9894	17,148.9	32.117	17,148.9	41.6262	17,148.9	29.2645	17,148.9	26.1915
17,752.4	84.9179	17,752.4	83.9887	17,752.4	83.3753	17,752.4	80.7845	17,752.4	78.8874	17,752.4	72.7957	17,752.4	70.2248	17,752.4	65.0748	17,752.4	59.242	17,752.4	61.3566	17,752.4	62.6172	17,752.4	61.0013	17,752.4	60.2767	17,752.4	55.8025	17,752.4	56.3037	17,752.4	50.057	17,752.4	51.0204	17,752.4	47.2101	17,752.4	43.8175	17,752.4	40.6863	17,752.4	53.6251	17,752.4	41.6328	17,752.4	42.5531	17,752.4	36.822	17,752.4	33.6657	17,752.4	39.012	17,752.4	38.3043	17,752.4	42.4125	17,752.4	34.948	17,752.4	35.2763	17,752.4	33.1967	17,752.4	33.3427	17,752.4	28.8452	17,752.4	39.5976	17,752.4	24.4422	17,752.4	30.2209
18,379.4	84.7443	18,379.4	83.6847	18,379.4	82.809	18,379.4	79.9577	18,379.4	77.8022	18,379.4	69.5761	18,379.4	69.397	18,379.4	58.3808	18,379.4	65.6569	18,379.4	59.0344	18,379.4	63.8203	18,379.4	59.2083	18,379.4	58.8204	18,379.4	55.2743	18,379.4	53.5263	18,379.4	48.7965	18,379.4	49.4176	18,379.4	46.1145	18,379.4	41.306	18,379.4	42.2272	18,379.4	53.1786	18,379.4	36.3553	18,379.4	33.5404	18,379.4	38.8787	18,379.4	35.7231	18,379.4	38.8904	18,379.4	29.9309	18,379.4	40.0644	18,379.4	37.9835	18,379.4	33.115	18,379.4	32.0261	18,379.4	27.6959	18,379.4	38.5331	18,379.4	32.4944	18,379.4	38.5896	18,379.4	35.8727
19,026.9	83.9835	19,026.9	82.5918	19,026.9	81.5194	19,026.9	78.2997	19,026.9	77.2018	19,026.9	65.6973	19,026.9	72.0336	19,026.9	54.861	19,026.9	66.5545	19,026.9	62.8772	19,026.9	61.0641	19,026.9	64.2552	19,026.9	49.9005	19,026.9	61.0412	19,026.9	49.5781	19,026.9	56.2756	19,026.9	45.5727	19,026.9	51.799	19,026.9	41.1593	19,026.9	46.6999	19,026.9	51.2798	19,026.9	40.7639	19,026.9	44.8411	19,026.9	44.3849	19,026.9	44.7279	19,026.9	45.6873	19,026.9	22.0856	19,026.9	45.0815	19,026.9	24.7416	19,026.9	42.7395	19,026.9	26.5411	19,026.9	37.1155	19,026.9	41.1132	19,026.9	41.4461	19,026.9	43.6176	19,026.9	45.3946
19,697.8	82.8641	19,697.8	81.2082	19,697.8	80.6439	19,697.8	75.7088	19,697.8	78.0658	19,697.8	59.7751	19,697.8	74.166	19,697.8	58.1551	19,697.8	67.9147	19,697.8	66.0424	19,697.8	65.7963	19,697.8	68.2456	19,697.8	58.2883	19,697.8	65.0898	19,697.8	61.0859	19,697.8	60.2767	19,697.8	56.2888	19,697.8	55.4977	19,697.8	48.5474	19,697.8	50.6797	19,697.8	56.4607	19,697.8	42.0706	19,697.8	49.6195	19,697.8	46.3752	19,697.8	46.8577	19,697.8	48.4579	19,697.8	39.3064	19,697.8	48.3128	19,697.8	45.7912	19,697.8	46.3016	19,697.8	12.1887	19,697.8	44.9759	19,697.8	47.0319	19,697.8	46.3266	19,697.8	47.3431	19,697.8	54.3845
19,999.5	81.7527	19,999.5	80.3798	19,999.5	80.6407	19,999.5	75.1822	19,999.5	78.5815	19,999.5	61.7445	19,999.5	75.7778	19,999.5	59.3462	19,999.5	69.2873	19,999.5	65.0552	19,999.5	66.6903	19,999.5	68.8279	19,999.5	65.9685	19,999.5	65.4664	19,999.5	63.7005	19,999.5	60.5209	19,999.5	57.9472	19,999.5	55.4523	19,999.5	49.0671	19,999.5	47.461	19,999.5	55.8799	19,999.5	45.3259	19,999.5	50.077	19,999.5	52.3682	19,999.5	51.0453	19,999.5	43.4968	19,999.5	48.3952	19,999.5	45.9083	19,999.5	51.1689	19,999.5	45.6644	19,999.5	48.203	19,999.5	45.9585	19,999.5	51.8936	19,999.5	40.5393	19,999.5	41.5257	19,999.5	52.0835
