"Horizontal Reflections"
"Front"		"Side"		"Rear"		"Total Horizontal Reflection"
"Frequency / Hz"	"Sound Pressure Level / dB (re 20 µPa/V)  [2.83  V @ 1. m]"	"Frequency / Hz"	"Sound Pressure Level / dB (re 20 µPa/V)  [2.83  V @ 1. m]"	"Frequency / Hz"	"Sound Pressure Level / dB (re 20 µPa/V)  [2.83  V @ 1. m]"	"Frequency / Hz"	"Sound Pressure Level / dB (re 20 µPa/V)  [2.83  V @ 1. m]"
20.5078	41.7326	20.5078	43.0568	20.5078	50.8467	20.5078	48.6125
21.9727	45.8235	21.9727	44.3454	21.9727	51.327	21.9727	49.3765
23.4375	45.5778	23.4375	44.6223	23.4375	52.6447	23.4375	50.4964
24.9023	48.025	24.9023	46.0861	24.9023	52.9467	24.9023	51.0599
26.3672	48.2979	26.3672	47.3659	26.3672	54.7255	26.3672	52.6708
27.832	50.2009	27.832	49.3152	27.832	55.9994	27.832	54.0513
29.2969	51.7903	29.2969	50.6289	29.2969	56.6889	29.2969	54.8813
30.7617	53.0849	30.7617	52.0662	30.7617	57.9557	30.7617	56.1689
32.2266	55.4033	32.2266	54.4622	32.2266	58.9137	32.2266	57.4513
33.6914	55.8724	33.6914	55.1323	33.6914	60.1404	33.6914	58.5177
35.1562	57.2175	35.1562	56.6779	35.1562	61.4224	35.1562	59.8409
36.6211	58.9083	36.6211	58.5693	36.6211	62.7889	36.6211	61.3166
38.0859	60.1534	38.0859	59.8325	38.0859	63.7469	38.0859	62.3537
39.5508	61.5859	39.5508	61.3195	39.5508	64.8535	39.5508	63.5605
41.0156	62.7371	41.0156	62.5403	41.0156	65.9661	41.0156	64.696
42.4805	64.0645	42.4805	63.9999	42.4805	67.2298	42.4805	66.0014
43.9453	65.4382	43.9453	65.3831	43.9453	68.3159	43.9453	67.1775
45.4102	66.6289	45.4102	66.6432	45.4102	69.3881	45.4102	68.3003
46.875	67.9215	46.875	68.0373	46.875	70.4969	46.875	69.4891
48.3398	69.1725	48.3398	69.1472	48.3398	71.3483	48.3398	70.4488
51.2695	71.3854	51.2695	71.4438	51.2695	73.3986	51.2695	72.5746
52.7344	72.5222	52.7344	72.5965	52.7344	74.4046	52.7344	73.6319
54.1992	73.5755	54.1992	73.6653	54.1992	75.3641	54.1992	74.6298
55.6641	74.519	55.6641	74.6371	55.6641	76.2692	55.6641	75.5556
58.5938	76.2673	58.5938	76.4289	58.5938	77.8493	58.5938	77.2101
60.0586	77.0863	60.0586	77.2481	60.0586	78.593	60.0586	77.9833
62.9883	78.4385	62.9883	78.6396	62.9883	79.8758	62.9883	79.3028
64.4531	78.9409	64.4531	79.1676	64.4531	80.3454	64.4531	79.7916
67.3828	79.7459	67.3828	79.9812	67.3828	80.9965	67.3828	80.5071
68.8477	80.0161	68.8477	80.2582	68.8477	81.2184	68.8477	80.7505
71.7773	80.5427	71.7773	80.7847	71.7773	81.6086	71.7773	81.1975
74.707	80.855	74.707	81.0887	74.707	81.7883	74.707	81.4312
77.6367	80.9624	77.6367	81.201	77.6367	81.8156	77.6367	81.4942
79.1016	81.0062	79.1016	81.2471	79.1016	81.8223	79.1016	81.5176
82.0312	81.1066	82.0312	81.356	82.0312	81.8662	82.0312	81.5883
84.9609	81.1344	84.9609	81.3923	84.9609	81.8621	84.9609	81.6004
87.8906	81.1225	87.8906	81.3889	87.8906	81.7987	87.8906	81.562
90.8203	81.2138	90.8203	81.4534	90.8203	81.7529	90.8203	81.5701
95.2148	81.294	95.2148	81.5354	95.2148	81.7541	95.2148	81.6075
98.1445	81.2638	98.1445	81.5201	98.1445	81.7253	98.1445	81.5822
101.074	81.1972	101.074	81.4739	101.074	81.7428	101.074	81.5672
105.469	81.329	105.469	81.6036	105.469	81.7613	105.469	81.6365
108.398	81.5108	108.398	81.74	108.398	81.8009	108.398	81.7289
112.793	81.7673	112.793	81.9892	112.793	82.0012	112.793	81.9534
117.188	81.865	117.188	82.0311	117.188	81.9811	117.188	81.9728
120.117	82.0249	120.117	82.1631	120.117	81.978	120.117	82.0393
124.512	82.1787	124.512	82.3054	124.512	81.987	124.512	82.115
128.906	82.1947	128.906	82.371	128.906	82.1898	128.906	82.2418
133.301	82.2548	133.301	82.4428	133.301	82.2823	133.301	82.3222
139.16	82.4479	139.16	82.6029	139.16	82.3499	139.16	82.4406
143.555	82.571	143.555	82.7051	143.555	82.4174	143.555	82.529
147.949	82.6346	147.949	82.7482	147.949	82.4806	147.949	82.5864
153.809	82.74	153.809	82.8457	153.809	82.5581	153.809	82.6752
159.668	82.862	159.668	82.9682	159.668	82.6884	159.668	82.8017
165.527	83.0685	165.527	83.1832	165.527	82.9697	165.527	83.0492
171.387	83.2221	171.387	83.2587	171.387	82.9378	171.387	83.0849
177.246	83.4623	177.246	83.3915	177.246	82.8085	177.246	83.1084
183.105	83.3052	183.105	83.3222	183.105	82.8938	183.105	83.0979
188.965	83.3828	188.965	83.3488	188.965	82.9237	188.965	83.1366
196.289	83.6061	196.289	83.4893	196.289	82.8685	196.289	83.1974
203.613	83.6436	203.613	83.4152	203.613	82.7798	203.613	83.1403
210.938	83.8236	210.938	83.6268	210.938	82.8451	210.938	83.2745
218.262	83.7379	218.262	83.5725	218.262	82.963	218.262	83.2966
225.586	83.7861	225.586	83.5876	225.586	83.0135	225.586	83.3361
232.91	83.9145	232.91	83.6278	232.91	82.7947	232.91	83.2711
241.699	83.8777	241.699	83.5638	241.699	82.6617	241.699	83.1807
250.488	83.8294	250.488	83.491	250.488	82.5992	250.488	83.1184
259.277	84.2637	259.277	83.6904	259.277	82.5897	259.277	83.2774
268.066	84.0902	268.066	83.5375	268.066	82.4694	268.066	83.1342
276.855	83.9616	276.855	83.5515	276.855	82.2502	276.855	83.0092
287.109	83.9813	287.109	83.486	287.109	82.4898	287.109	83.1017
297.363	83.8302	297.363	83.5445	297.363	82.4217	297.363	83.0529
307.617	83.6702	307.617	83.3518	307.617	82.3705	307.617	82.9329
319.336	82.6473	319.336	81.9951	319.336	82.9376	319.336	82.6375
329.59	83.9529	329.59	82.4085	329.59	82.3724	329.59	82.7374
341.309	84.2464	341.309	82.8946	341.309	81.7648	341.309	82.6723
353.027	84.0221	353.027	82.7277	353.027	80.9447	353.027	82.2206
366.211	84.4962	366.211	83.0279	366.211	81.5285	366.211	82.6852
379.395	85.1279	379.395	83.702	379.395	81.5142	379.395	83.0807
392.578	84.7765	392.578	83.4615	392.578	81.3278	392.578	82.8261
405.762	84.5296	405.762	83.3198	405.762	81.0234	405.762	82.5921
420.41	85.0541	420.41	83.5145	420.41	80.4167	420.41	82.6185
435.059	84.2347	435.059	83.1307	435.059	80.4489	435.059	82.2323
451.172	84.8775	451.172	83.2792	451.172	80.3769	451.172	82.4661
465.82	84.6083	465.82	83.2601	465.82	79.7291	465.82	82.1647
483.398	84.6678	483.398	83.4632	483.398	79.9685	483.398	82.3304
499.512	84.3012	499.512	83.1716	499.512	79.7907	499.512	82.0494
517.09	84.5649	517.09	83.288	517.09	79.8971	517.09	82.2113
536.133	84.0661	536.133	82.6043	536.133	79.3695	536.133	81.6386
555.176	84.4246	555.176	83.0624	555.176	78.3363	555.176	81.6455
574.219	84.5741	574.219	83.4877	574.219	79.1076	574.219	82.061
594.727	83.6996	594.727	82.6811	594.727	79.0197	594.727	81.4362
615.234	84.0763	615.234	82.5136	615.234	78.0559	615.234	81.2383
637.207	84.5618	637.207	83.1288	637.207	79.0777	637.207	81.9134
659.18	84.6064	659.18	83.2436	659.18	79.0865	659.18	81.9742
682.617	84.9852	682.617	83.5342	682.617	79.5502	682.617	82.3437
707.52	85.5824	707.52	84.095	707.52	79.5426	707.52	82.7677
732.422	85.1642	732.422	83.6147	732.422	78.7761	732.422	82.2408
757.324	84.3688	757.324	82.624	757.324	78.8858	757.324	81.6087
785.156	85.0896	785.156	82.8428	785.156	78.4968	785.156	81.8628
811.523	84.3529	811.523	81.8192	811.523	77.9352	811.523	81.0726
840.82	85.1177	840.82	81.5431	840.82	78.015	840.82	81.3425
870.117	86.4393	870.117	82.7585	870.117	77.7555	870.117	82.2931
900.879	87.4635	900.879	83.6084	900.879	79.0819	900.879	83.3225
933.105	87.6667	933.105	84.2184	933.105	79.2149	933.105	83.637
965.332	87.8087	965.332	84.4674	965.332	78.9551	965.332	83.74
1,000.49	87.4109	1,000.49	83.5623	1,000.49	78.2216	1,000.49	83.1229
1,035.64	87.1137	1,035.64	83.5447	1,035.64	76.8548	1,035.64	82.752
1,072.27	86.6333	1,072.27	83.1014	1,072.27	76.9606	1,072.27	82.3681
1,108.89	86.7147	1,108.89	83.4101	1,108.89	76.0827	1,108.89	82.3951
1,148.44	86.5792	1,148.44	83.3738	1,148.44	75.8876	1,148.44	82.2874
1,189.45	86.494	1,189.45	83.2761	1,189.45	76.4883	1,189.45	82.2868
1,230.47	86.5345	1,230.47	83.9276	1,230.47	76.5355	1,230.47	82.5512
1,274.41	87.83	1,274.41	84.304	1,274.41	76.903	1,274.41	83.398
1,319.82	88.6026	1,319.82	85.2472	1,319.82	76.3866	1,319.82	84.0976
1,366.7	88.7134	1,366.7	84.9301	1,366.7	77.5378	1,366.7	84.1659
1,413.57	88.6753	1,413.57	85.0576	1,413.57	77.0774	1,413.57	84.1375
1,463.38	87.3589	1,463.38	83.8176	1,463.38	76.3908	1,463.38	82.9169
1,516.11	86.5727	1,516.11	82.6436	1,516.11	75.9432	1,516.11	82.0443
1,568.85	85.4934	1,568.85	80.4904	1,568.85	74.2754	1,568.85	80.5732
1,624.51	85.4108	1,624.51	80.8947	1,624.51	73.1316	1,624.51	80.5144
1,681.64	85.3246	1,681.64	80.1947	1,681.64	73.135	1,681.64	80.2602
1,741.7	85.8399	1,741.7	80.6669	1,741.7	72.2107	1,741.7	80.6362
1,803.22	85.6751	1,803.22	80.755	1,803.22	71.5349	1,803.22	80.5075
1,866.21	84.8582	1,866.21	79.6002	1,866.21	70.6153	1,866.21	79.5871
1,932.13	84.5127	1,932.13	79.3079	1,932.13	69.8471	1,932.13	79.2295
1,999.51	84.246	1,999.51	79.1858	1,999.51	68.3013	1,999.51	78.9369
2,069.82	83.5229	2,069.82	78.7979	2,069.82	67.2303	2,069.82	78.3002
2,143.07	83.8401	2,143.07	78.7644	2,143.07	66.851	2,143.07	78.4839
2,219.24	83.8648	2,219.24	78.5307	2,219.24	66.1513	2,219.24	78.4089
2,296.88	83.3417	2,296.88	77.7135	2,296.88	65.4095	2,296.88	77.797
2,378.91	83.5073	2,378.91	77.5466	2,378.91	64.5231	2,378.91	77.8453
2,462.4	84.8511	2,462.4	78.5152	2,462.4	64.5126	2,462.4	79.0656
2,548.83	86.0848	2,548.83	79.6288	2,548.83	64.606	2,548.83	80.2516
2,639.65	86.4806	2,639.65	80.2016	2,639.65	64.2334	2,639.65	80.6805
2,731.93	85.9841	2,731.93	79.3184	2,731.93	62.7962	2,731.93	80.0807
2,828.61	85.7079	2,828.61	78.6671	2,828.61	62.1923	2,828.61	79.7167
2,928.22	85.5752	2,928.22	78.1295	2,928.22	62.3073	2,928.22	79.5013
3,030.76	85.2171	3,030.76	77.7982	3,030.76	61.5104	3,030.76	79.1444
3,137.7	84.9995	3,137.7	77.4574	3,137.7	62.0219	3,137.7	78.9092
3,249.02	84.9184	3,249.02	77.439	3,249.02	61.841	3,249.02	78.8396
3,363.28	85.1234	3,363.28	77.5215	3,363.28	61.7521	3,363.28	79.0173
3,481.93	85.2779	3,481.93	78.0977	3,481.93	62.7322	3,481.93	79.2669
3,604.98	85.0607	3,604.98	78.1469	3,604.98	63.3402	3,604.98	79.1181
3,732.42	85.0188	3,732.42	78.2485	3,732.42	63.9791	3,732.42	79.1187
3,864.26	85.2357	3,864.26	77.8142	3,864.26	64.492	3,864.26	79.201
4,000.49	84.7143	4,000.49	77.0468	4,000.49	64.6025	4,000.49	78.6433
4,141.11	85.7922	4,141.11	77.5668	4,141.11	65.1242	4,141.11	79.6082
4,287.6	86.7976	4,287.6	77.6529	4,287.6	65.4033	4,287.6	80.4543
4,438.48	87.8469	4,438.48	77.2533	4,438.48	64.3489	4,438.48	81.2915
4,595.21	88.1303	4,595.21	76.477	4,595.21	59.4255	4,595.21	81.4373
4,756.35	87.3014	4,756.35	76.7361	4,756.35	55.4398	4,756.35	80.7093
4,924.8	85.4694	4,924.8	78.4846	4,924.8	63.4854	4,924.8	79.5075
5,097.66	84.2923	5,097.66	78.4492	5,097.66	66.2981	5,097.66	78.6882
5,277.83	84.5753	5,277.83	77.7129	5,277.83	65.145	5,277.83	78.686
5,463.87	84.8801	5,463.87	78.4049	5,463.87	65.4966	5,463.87	79.0808
5,657.23	85.2211	5,657.23	77.1797	5,657.23	64.8285	5,657.23	79.0749
5,856.45	85.7331	5,856.45	77.2119	5,856.45	63.8165	5,856.45	79.4785
6,062.99	86.2582	6,062.99	76.3845	6,062.99	63.1471	6,062.99	79.792
6,276.86	85.8533	6,276.86	75.7197	6,276.86	61.8653	6,276.86	79.3459
6,498.05	85.595	6,498.05	76.1452	6,498.05	61.9805	6,498.05	79.1795
6,726.56	86.2272	6,726.56	77.4236	6,726.56	64.92	6,726.56	79.9368
6,963.87	86.2914	6,963.87	76.5379	6,963.87	64.4235	6,963.87	79.857
7,209.96	86.8631	7,209.96	76.9216	7,209.96	64.5044	7,209.96	80.3978
7,464.84	86.6566	7,464.84	77.2178	7,464.84	64.3362	7,464.84	80.2578
7,727.05	86.0975	7,727.05	77.4371	7,727.05	63.0198	7,727.05	79.8055
7,999.51	86.3585	7,999.51	77.7188	7,999.51	63.1824	7,999.51	80.0688
8,282.23	85.6391	8,282.23	77.4033	8,282.23	62.9449	8,282.23	79.4227
8,573.73	85.3097	8,573.73	77.8937	8,573.73	63.3752	8,573.73	79.2575
8,876.95	84.6516	8,876.95	77.4095	8,876.95	62.8248	8,876.95	78.6367
9,188.96	84.4412	9,188.96	77.3243	9,188.96	63.4422	9,188.96	78.4654
9,514.16	83.915	9,514.16	77.0482	9,514.16	63.4101	9,514.16	78.0023
9,849.61	83.4294	9,849.61	77.3005	9,849.61	63.6971	9,849.61	77.7073
10,196.8	83.3402	10,196.8	77.0391	10,196.8	63.132	10,196.8	77.5657
10,555.7	83.2637	10,555.7	77.1839	10,555.7	62.7889	10,555.7	77.5399
10,927.7	83.0756	10,927.7	76.4288	10,927.7	62.6765	10,927.7	77.2149
11,313	83.9432	11,313	75.4605	11,313	62.1705	11,313	77.697
11,712.9	85.0269	11,712.9	74.7106	11,712.9	61.4103	11,712.9	78.5015
12,126	85.1451	12,126	75.6856	12,126	59.6166	12,126	78.7126
12,553.7	84.8446	12,553.7	76.2815	12,553.7	57.3867	12,553.7	78.5379
12,996.1	84.5695	12,996.1	76.5603	12,996.1	56.8459	12,996.1	78.3583
13,454.6	83.8821	13,454.6	76.8237	13,454.6	55.4994	13,454.6	77.8596
13,929.2	83.2184	13,929.2	77.4283	13,929.2	55.5123	13,929.2	77.5089
14,419.9	82.7917	14,419.9	76.5139	14,419.9	53.576	14,419.9	76.9503
14,928.2	82.8548	14,928.2	76.4398	14,928.2	54.8213	14,928.2	76.9826
15,455.6	83.446	15,455.6	76.2774	15,455.6	54.7632	15,455.6	77.3988
16,000.5	84.3472	16,000.5	75.7314	16,000.5	55.0053	16,000.5	78.0257
16,564.5	84.7386	16,564.5	74.5315	16,564.5	54.3065	16,564.5	78.1905
17,148.9	84.4454	17,148.9	75.044	17,148.9	55.3691	17,148.9	78.0053
17,752.4	84.8249	17,752.4	74.6432	17,752.4	57.2932	17,752.4	78.2887
18,379.4	84.2842	18,379.4	74.3121	18,379.4	57.5569	18,379.4	77.7775
19,026.9	84.3008	19,026.9	73.8367	19,026.9	56.1411	19,026.9	77.7293
19,697.8	84.2299	19,697.8	73.8839	19,697.8	54.7937	19,697.8	77.6678
19,999.5	84.2514	19,999.5	74.0087	19,999.5	55.9808	19,999.5	77.7051
