"Vertical Reflections"
"Floor Reflection"		"Ceiling Reflection"		"Total Vertical Reflection"
"Frequency / Hz"	"Sound Pressure Level / dB (re 20 µPa/V)  [2.83  V @ 1. m]"	"Frequency / Hz"	"Sound Pressure Level / dB (re 20 µPa/V)  [2.83  V @ 1. m]"	"Frequency / Hz"	"Sound Pressure Level / dB (re 20 µPa/V)  [2.83  V @ 1. m]"
20.5078	42.0243	20.5078	39.7654	20.5078	41.0401
21.9727	44.6986	21.9727	44.9962	21.9727	44.85
23.4375	44.958	23.4375	44.2081	23.4375	44.5992
24.9023	46.9389	24.9023	47.0026	24.9023	46.9708
26.3672	47.5619	26.3672	47.5394	26.3672	47.5507
27.832	49.4937	27.832	49.4732	27.832	49.4835
29.2969	51.1129	29.2969	51.0432	29.2969	51.0782
30.7617	52.3356	30.7617	52.5749	30.7617	52.4569
32.2266	54.8139	32.2266	54.8827	32.2266	54.8484
33.6914	55.3962	33.6914	55.3575	33.6914	55.3769
35.1562	56.7304	35.1562	56.9256	35.1562	56.8291
36.6211	58.6069	36.6211	58.6225	36.6211	58.6147
38.0859	59.8638	38.0859	59.9053	38.0859	59.8846
39.5508	61.3571	39.5508	61.3589	39.5508	61.358
41.0156	62.5501	41.0156	62.5309	41.0156	62.5405
42.4805	63.9805	42.4805	63.8607	42.4805	63.921
43.9453	65.3346	43.9453	65.3248	43.9453	65.3297
45.4102	66.5695	45.4102	66.5253	45.4102	66.5474
46.875	67.9318	46.875	67.874	46.875	67.903
48.3398	69.1355	48.3398	69.0271	48.3398	69.0816
51.2695	71.3957	51.2695	71.2935	51.2695	71.3449
52.7344	72.541	52.7344	72.4521	52.7344	72.4967
54.1992	73.6195	54.1992	73.4888	54.1992	73.5547
55.6641	74.58	55.6641	74.4419	55.6641	74.5115
58.5938	76.3581	58.5938	76.2093	58.5938	76.2844
60.0586	77.1753	60.0586	77.0335	60.0586	77.105
62.9883	78.5469	62.9883	78.4085	62.9883	78.4783
64.4531	79.0551	64.4531	78.9335	64.4531	78.9947
67.3828	79.8843	67.3828	79.7264	67.3828	79.806
68.8477	80.1582	68.8477	79.9969	68.8477	80.0783
71.7773	80.6918	71.7773	80.5298	71.7773	80.6116
74.707	81.0047	74.707	80.8387	74.707	80.9225
77.6367	81.1157	77.6367	80.9498	77.6367	81.0335
79.1016	81.1611	79.1016	80.9967	79.1016	81.0796
82.0312	81.269	82.0312	81.0983	82.0312	81.1845
84.9609	81.2988	84.9609	81.1328	84.9609	81.2166
87.8906	81.2948	87.8906	81.1246	87.8906	81.2105
90.8203	81.3849	90.8203	81.2016	90.8203	81.2943
95.2148	81.465	95.2148	81.2532	95.2148	81.3604
98.1445	81.4417	98.1445	81.2448	98.1445	81.3444
101.074	81.3846	101.074	81.1902	101.074	81.2885
105.469	81.5178	105.469	81.315	105.469	81.4176
108.398	81.66	108.398	81.4892	108.398	81.5754
112.793	81.9086	112.793	81.8218	112.793	81.8654
117.188	82.0252	117.188	81.8218	117.188	81.9247
120.117	82.1711	120.117	81.9718	120.117	82.0725
124.512	82.3133	124.512	82.0922	124.512	82.2041
128.906	82.3355	128.906	82.1397	128.906	82.2387
133.301	82.4211	133.301	82.2179	133.301	82.3207
139.16	82.596	139.16	82.3841	139.16	82.4913
143.555	82.7128	143.555	82.4704	143.555	82.5933
147.949	82.7532	147.949	82.5222	147.949	82.6392
153.809	82.8749	153.809	82.6228	153.809	82.7506
159.668	82.9911	159.668	82.783	159.668	82.8883
165.527	83.1767	165.527	83.0348	165.527	83.1063
171.387	83.3217	171.387	83.1215	171.387	83.2228
177.246	83.5419	177.246	83.2628	177.246	83.4046
183.105	83.3725	183.105	83.1723	183.105	83.2736
188.965	83.4463	188.965	83.1817	188.965	83.316
196.289	83.6049	196.289	83.4673	196.289	83.5366
203.613	83.627	203.613	83.3799	203.613	83.5052
210.938	83.7933	210.938	83.6211	210.938	83.7081
218.262	83.7032	218.262	83.5791	218.262	83.6416
225.586	83.7165	225.586	83.6545	225.586	83.6856
232.91	83.7672	232.91	83.7143	232.91	83.7408
241.699	83.7458	241.699	83.6423	241.699	83.6944
250.488	83.7992	250.488	83.4593	250.488	83.6326
259.277	84.1821	259.277	83.8961	259.277	84.0414
268.066	83.9949	268.066	83.6124	268.066	83.8079
276.855	83.9083	276.855	83.4839	276.855	83.7013
287.109	83.7633	287.109	83.7637	287.109	83.7635
297.363	83.526	297.363	83.6602	297.363	83.5936
307.617	83.4455	307.617	83.434	307.617	83.4398
319.336	82.3864	319.336	82.1462	319.336	82.268
329.59	83.387	329.59	82.7646	329.59	83.0869
341.309	83.9006	341.309	83.1336	341.309	83.534
353.027	83.5823	353.027	82.9275	353.027	83.2672
366.211	83.8927	366.211	83.8484	366.211	83.8706
379.395	84.5674	379.395	84.2923	379.395	84.432
392.578	84.4879	392.578	83.7473	392.578	84.1334
405.762	84.163	405.762	83.3959	405.762	83.7964
420.41	84.5979	420.41	83.8458	420.41	84.2381
435.059	83.7878	435.059	83.239	435.059	83.5221
451.172	84.4853	451.172	83.4528	451.172	83.9996
465.82	84.2504	465.82	83.3349	465.82	83.8167
483.398	84.1405	483.398	83.3285	483.398	83.7534
499.512	83.6615	499.512	82.9396	499.512	83.3155
517.09	84.3274	517.09	82.9476	517.09	83.6921
536.133	83.4039	536.133	82.1833	536.133	82.8364
555.176	83.7964	555.176	82.1144	555.176	83.0363
574.219	84.0532	574.219	82.4844	574.219	83.3392
594.727	83.4285	594.727	81.4244	594.727	82.541
615.234	83.5399	615.234	81.4315	615.234	82.6124
637.207	84.0003	637.207	82.1521	637.207	83.1738
659.18	84.6541	659.18	82.0001	659.18	83.5267
682.617	84.4907	682.617	83.4815	682.617	84.0154
707.52	84.7888	707.52	82.8565	707.52	83.9292
732.422	84.8833	732.422	83.0121	732.422	84.0477
757.324	84.3244	757.324	83.1213	757.324	83.7644
785.156	84.173	785.156	82.4844	785.156	83.4103
811.523	84.0352	811.523	81.3717	811.523	82.9045
840.82	84.2331	840.82	81.8853	840.82	83.216
870.117	85.0975	870.117	82.0691	870.117	83.8421
900.879	86.4484	900.879	83.4809	900.879	85.2133
933.105	86.9368	933.105	83.8929	933.105	85.6762
965.332	86.9135	965.332	83.3506	965.332	85.4876
1,000.49	86.77	1,000.49	82.966	1,000.49	85.2718
1,035.64	86.7501	1,035.64	83.7438	1,035.64	85.502
1,072.27	86.6823	1,072.27	82.9749	1,072.27	85.2128
1,108.89	86.9545	1,108.89	83.2508	1,108.89	85.486
1,148.44	86.4734	1,148.44	82.0237	1,148.44	84.7951
1,189.45	86.1197	1,189.45	82.0493	1,189.45	84.5449
1,230.47	85.8571	1,230.47	83.8338	1,230.47	84.9623
1,274.41	86.7874	1,274.41	84.3785	1,274.41	85.7479
1,319.82	87.8886	1,319.82	84.7145	1,319.82	86.5853
1,366.7	88.7372	1,366.7	85.3357	1,366.7	87.3613
1,413.57	87.9099	1,413.57	84.5529	1,413.57	86.548
1,463.38	87.0231	1,463.38	81.5882	1,463.38	85.1055
1,516.11	85.6839	1,516.11	82.3935	1,516.11	84.3431
1,568.85	84.7706	1,568.85	84.0717	1,568.85	84.4352
1,624.51	84.5656	1,624.51	83.3128	1,624.51	83.9842
1,681.64	84.435	1,681.64	83.2715	1,681.64	83.8921
1,741.7	84.5568	1,741.7	82.4454	1,741.7	83.6282
1,803.22	84.1393	1,803.22	81.9985	1,803.22	83.1995
1,866.21	84.3797	1,866.21	82.6461	1,866.21	83.5988
1,932.13	84.0658	1,932.13	81.8512	1,932.13	83.0981
1,999.51	83.9608	1,999.51	81.7937	1,999.51	83.011
2,069.82	82.8131	2,069.82	81.1995	2,069.82	82.0809
2,143.07	82.9486	2,143.07	81.2085	2,143.07	82.1651
2,219.24	83.706	2,219.24	80.3288	2,219.24	82.3377
2,296.88	83.9296	2,296.88	79.4908	2,296.88	82.2542
2,378.91	83.5377	2,378.91	80.7201	2,378.91	82.3535
2,462.4	82.7585	2,462.4	81.0247	2,462.4	81.9775
2,548.83	82.9723	2,548.83	81.5989	2,548.83	82.3397
2,639.65	84.9616	2,639.65	82.0608	2,639.65	83.749
2,731.93	85.7039	2,731.93	81.3128	2,731.93	84.0412
2,828.61	84.7549	2,828.61	81.3207	2,828.61	83.3688
2,928.22	83.6096	2,928.22	80.5074	2,928.22	82.3298
3,030.76	82.8636	3,030.76	79.6176	3,030.76	81.5371
3,137.7	83.0415	3,137.7	79.774	3,137.7	81.7081
3,249.02	83.6188	3,249.02	80.4297	3,249.02	82.3106
3,363.28	83.5261	3,363.28	80.0422	3,363.28	82.1245
3,481.93	83.0061	3,481.93	80.2323	3,481.93	81.837
3,604.98	82.7147	3,604.98	80.5156	3,604.98	81.7529
3,732.42	81.2257	3,732.42	80.2334	3,732.42	80.7578
3,864.26	81.486	3,864.26	80.9602	3,864.26	81.231
4,000.49	82.5003	4,000.49	80.1137	4,000.49	81.4689
4,141.11	82.8278	4,141.11	79.2942	4,141.11	81.4109
4,287.6	84.2104	4,287.6	77.9926	4,287.6	82.1305
4,438.48	85.7461	4,438.48	78.5059	4,438.48	83.4869
4,595.21	86.8429	4,595.21	77.8908	4,595.21	84.353
4,756.35	86.1997	4,756.35	78.5906	4,756.35	83.8839
4,924.8	83.4412	4,924.8	79.0507	4,924.8	81.7787
5,097.66	82.6804	5,097.66	78.6083	5,097.66	81.1051
5,277.83	83.0594	5,277.83	78.8209	5,277.83	81.4379
5,463.87	83.2178	5,463.87	78.4249	5,463.87	81.4515
5,657.23	83.3901	5,657.23	78.0037	5,657.23	81.4834
5,856.45	83.0506	5,856.45	78.068	5,856.45	81.2378
6,062.99	82.6791	6,062.99	78.2426	6,062.99	81.0043
6,276.86	83.1312	6,276.86	78.2781	6,276.86	81.3499
6,498.05	83.2107	6,498.05	78.3656	6,498.05	81.4315
6,726.56	83.5215	6,726.56	77.6799	6,726.56	81.5167
6,963.87	83.5599	6,963.87	77.6134	6,963.87	81.5336
7,209.96	83.0417	7,209.96	77.8468	7,209.96	81.1787
7,464.84	82.0083	7,464.84	78.0161	7,464.84	80.4556
7,727.05	82.3755	7,727.05	78.1376	7,727.05	80.7542
7,999.51	82.6635	7,999.51	77.8831	7,999.51	80.9003
8,282.23	83.3249	8,282.23	77.8572	8,282.23	81.4001
8,573.73	82.732	8,573.73	77.7547	8,573.73	80.9205
8,876.95	82.3727	8,876.95	77.4832	8,876.95	80.5825
9,188.96	83.3049	9,188.96	76.9835	9,188.96	81.2052
9,514.16	83.6201	9,514.16	77.1207	9,514.16	81.4873
9,849.61	83.3072	9,849.61	76.8462	9,849.61	81.1814
10,196.8	82.6457	10,196.8	76.7886	10,196.8	80.6377
10,555.7	82.1135	10,555.7	76.7152	10,555.7	80.2041
10,927.7	81.7041	10,927.7	76.9509	10,927.7	79.9477
11,313	81.0386	11,313	77.2339	11,313	79.5402
11,712.9	79.4291	11,712.9	78.3206	11,712.9	78.9101
12,126	78.7528	12,126	79.7112	12,126	79.2584
12,553.7	80.2452	12,553.7	80.0871	12,553.7	80.1669
12,996.1	81.0644	12,996.1	79.9314	12,996.1	80.5347
13,454.6	82.0529	13,454.6	79.9628	13,454.6	81.1324
13,929.2	81.9264	13,929.2	79.629	13,929.2	80.9279
14,419.9	82.3309	14,419.9	79.9602	14,419.9	81.3054
14,928.2	81.3322	14,928.2	79.7786	14,928.2	80.6245
15,455.6	81.4856	15,455.6	79.05	15,455.6	80.4363
16,000.5	82.2362	16,000.5	77.9814	16,000.5	80.6103
16,564.5	81.5814	16,564.5	77.2134	16,564.5	79.9248
17,148.9	82.449	17,148.9	77.0309	17,148.9	80.5351
17,752.4	81.7166	17,752.4	76.291	17,752.4	79.8011
18,379.4	82.1725	18,379.4	74.8219	18,379.4	79.896
19,026.9	81.8697	19,026.9	72.6438	19,026.9	79.3497
19,697.8	82.1472	19,697.8	71.5386	19,697.8	79.4989
19,999.5	82.4862	19,999.5	71.038	19,999.5	79.7764
