Freq[Hz]     dBSPL  Phase[Deg]
5.00000     43.238   -15.531
5.07273     42.918    -7.761
5.14651     42.498     0.122
5.22137     41.078    -1.719
5.29732     39.658    -3.562
5.37437     38.238    -5.404
5.45254     36.818    -7.243
5.53185     35.298     0.492
5.61231     33.678    18.362
5.69394     32.058    36.234
5.77676     30.338    54.105
5.86079     28.818    71.752
5.94604     30.699    76.304
6.03252     32.678    80.856
6.12027     34.658    85.410
6.20929     36.638    89.963
6.29961     37.418    87.758
6.39124     37.998    84.053
6.48420     38.578    80.352
6.57851     39.159    76.649
6.67420     39.138    71.666
6.77128     38.918    66.475
6.86977     38.698    61.283
6.96969     38.378    55.917
7.07107     37.158    49.207
7.17392     35.938    42.496
7.27827     34.719    35.789
7.38413     32.098    20.393
7.49154     28.378    -1.710
7.60050     24.658   -23.816
7.71105     22.238   -48.928
7.82321     25.518   -87.248
7.93701     28.899  -125.562
8.05245     32.279  -163.888
8.16958     33.859  -173.637
8.28841     35.338   177.686
8.40896     36.918   169.008
8.53128     37.398   161.492
8.65537     37.878   154.126
8.78126     38.259   146.759
8.90899     37.939   139.276
9.03857     37.519   131.784
9.17004     36.998   124.207
9.30342     35.478   115.930
9.43874     34.058   107.653
9.57603     31.438    95.823
9.71532     27.019    78.563
9.85663     22.599    61.303
10.0000     24.579     7.888
10.1455     28.357   -55.572
10.2930     31.738  -105.174
10.4427     34.118  -115.781
10.5946     36.398  -126.378
10.7487     37.679  -134.660
10.9051     38.659  -142.472
11.0637     39.439  -149.736
11.2246     39.819  -156.415
11.3879     40.098  -162.654
11.5535     40.178  -167.316
11.7216     40.159  -171.918
11.8921     40.139  -173.363
12.0650     40.019  -174.805
12.2405     40.399  -173.725
12.4186     40.779  -172.321
12.5992     41.558  -171.222
12.7825     42.538  -170.190
12.9684     43.619  -171.088
13.1570     44.799  -172.436
13.3484     45.779  -175.217
13.5426     46.759  -178.230
13.7395     47.539   178.380
13.9394     48.318   175.041
14.1421     48.898   172.172
14.3478     49.479   169.611
14.5565     50.059   167.701
14.7683     50.639   166.285
14.9831     51.119   165.248
15.2010     51.599   164.638
15.4221     52.078   164.155
15.6464     52.558   163.902
15.8740     53.039   163.907
16.1049     53.519   164.115
16.3392     53.999   165.060
16.5768     54.479   166.292
16.8179     55.159   167.903
17.0626     55.839   169.323
17.3107     56.618   170.252
17.5625     57.499   170.463
17.8180     58.379   169.275
18.0771     59.059   167.450
18.3401     59.639   165.069
18.6068     60.119   162.418
18.8775     60.399   160.106
19.1521     60.679   158.262
19.4306     60.959   157.004
19.7133     61.339   156.385
20.0000     61.819   155.702
20.2909     62.499   154.556
20.5860     63.177   152.686
20.8855     63.699   149.948
21.1893     64.399   146.329
21.4975     64.899   142.276
21.8102     65.399   138.006
22.1274     65.799   133.648
22.4492     66.168   129.299
22.7758     66.499   125.078
23.1071     66.699   121.202
23.4432     66.799   118.088
23.7841     66.899   116.467
24.1301     67.010   116.760
24.4811     67.399   118.661
24.8372     68.199   120.906
25.1984     69.199   121.938
25.5649     70.318   120.902
25.9368     71.482   117.923
26.3141     72.199   113.748
26.6968     72.709   109.320
27.0851     72.999   105.590
27.4791     73.196   103.432
27.8788     73.199   103.273
28.2843     73.523   104.527
28.6957     74.263   105.812
29.1131     75.099   105.725
29.5365     75.899   103.666
29.9661     76.699    99.955
30.4020     77.099    95.435
30.8442     77.421    91.199
31.2929     77.554    87.967
31.7480     77.699    85.830
32.2098     77.899    84.299
32.6783     78.199    82.581
33.1536     78.652    80.355
33.6359     79.014    77.850
34.1251     79.399    75.430
34.6215     79.645    73.194
35.1250     79.999    70.914
35.6359     80.368    68.324
36.1543     80.699    65.501
36.6802     80.999    62.722
37.2137     81.137    60.287
37.7550     81.308    58.245
38.3041     81.540    56.460
38.8613     81.699    54.641
39.4265     81.999    52.695
40.0000     81.999    50.847
40.5818     82.199    49.328
41.1721     82.599    47.974
41.7710     82.699    46.369
42.3785     82.999    44.387
42.9949     83.158    42.507
43.6203     83.399    40.929
44.2548     83.599    39.236
44.8985     83.899    36.999
45.5515     83.999    34.585
46.2141     84.199    32.503
46.8863     84.399    30.747
47.5683     84.599    29.005
48.2602     84.621    27.370
48.9621     84.799    26.006
49.6743     84.999    24.782
50.3968     85.199    23.573
51.1299     85.399    22.388
51.8736     85.599    21.125
52.6281     85.899    19.676
53.3936     86.199    18.042
54.1702     86.307    16.264
54.9581     86.399    14.510
55.7575     86.699    12.857
56.5685     86.899    11.089
57.3914     86.899     9.393
58.2261     86.999     8.344
59.0730     87.099     7.648
59.9323     87.399     6.590
60.8040     87.399     5.720
61.6884     87.744     5.291
62.5857     88.099     3.914
63.4960     88.299     1.932
64.4196     88.499     1.125
65.3566     88.846     0.151
66.3073     88.999    -1.939
67.2717     89.199    -3.479
68.2502     89.336    -4.814
69.2429     89.507    -5.872
70.2501     89.799    -6.816
71.2719     89.999    -9.033
72.3086     90.144   -10.785
73.3603     90.367   -11.572
74.4274     90.622   -12.666
75.5099     90.999   -14.327
76.6083     91.199   -15.920
77.7226     91.376   -17.736
78.8531     91.399   -19.054
80.0000     91.799   -20.243
81.1636     91.999   -22.154
82.3442     92.199   -23.597
83.5419     92.211   -25.050
84.7570     92.499   -26.391
85.9899     92.699   -27.917
87.2406     92.921   -29.602
88.5096     93.268   -31.315
89.7970     93.499   -33.197
91.1031     93.722   -35.427
92.4282     93.899   -37.588
93.7726     94.099   -40.073
95.1366     94.321   -43.101
96.5204     94.343   -46.030
97.9243     94.399   -48.797
99.3486     94.499   -51.404
100.794     94.299   -53.388
102.260     94.298   -54.931
103.747     94.367   -56.456
105.256     94.494   -58.390
106.787     94.591   -60.623
108.340     94.686   -62.918
109.916     94.583   -65.265
111.515     94.723   -67.616
113.137     94.570   -69.972
114.783     94.463   -72.226
116.452     94.355   -74.314
118.146     94.247   -76.283
119.865     94.107   -78.317
121.608     93.929   -79.605
123.377     93.908   -81.063
125.171     93.777   -82.599
126.992     93.676   -84.245
128.839     93.288   -85.829
130.713     93.239   -87.360
132.615     93.010   -88.816
134.543     92.764   -90.252
136.500     92.532   -91.726
138.486     92.273   -92.938
140.500     91.935   -93.831
142.544     91.579   -94.311
144.617     91.249   -94.402
146.721     90.958   -94.175
148.855     90.671   -93.840
151.020     90.318   -93.384
153.217     90.040   -92.607
155.445     89.794   -91.601
157.706     89.570   -90.561
160.000     89.351   -89.425
162.327     89.104   -87.998
164.688     88.907   -86.155
167.084     88.809   -83.833
169.514     88.815   -81.719
171.980     88.813   -79.974
174.481     88.796   -78.475
177.019     88.845   -77.037
179.594     88.895   -75.494
182.206     89.071   -74.103
184.856     89.214   -73.234
187.545     89.382   -72.724
190.273     89.530   -72.306
193.041     89.749   -72.063
195.849     89.861   -72.094
198.697     89.903   -72.309
201.587     90.003   -72.534
204.520     90.027   -72.803
207.494     90.026   -73.146
210.512     90.027   -73.530
213.574     90.030   -73.859
216.681     89.992   -74.054
219.833     89.869   -74.039
223.030     89.792   -73.770
226.274     89.715   -73.385
229.565     89.655   -72.976
232.905     89.586   -72.545
236.292     89.486   -72.053
239.729     89.497   -71.479
243.216     89.499   -70.910
246.754     89.396   -70.380
250.343     89.396   -69.877
253.984     89.296   -69.400
257.678     89.264   -68.948
261.426     89.192   -68.520
265.229     89.176   -68.114
269.087     89.083   -67.696
273.001     88.956   -67.227
276.972     88.835   -66.665
281.000     88.650   -65.936
285.088     88.458   -64.988
289.234     88.277   -63.836
293.441     88.136   -62.478
297.709     88.013   -60.948
302.040     87.853   -59.299
306.433     87.727   -57.521
310.890     87.606   -55.699
315.412     87.501   -53.980
320.000     87.469   -52.417
324.655     87.384   -51.016
329.377     87.254   -49.750
334.168     87.070   -48.448
339.028     86.828   -47.094
343.959     86.555   -45.530
348.962     86.275   -43.600
354.038     85.960   -41.142
359.188     85.618   -37.944
364.412     85.302   -33.918
369.713     85.089   -29.331
375.090     84.988   -24.471
380.546     85.101   -19.558
386.081     85.300   -15.099
391.697     85.530   -11.165
397.394     85.779    -7.810
403.175     85.978    -5.094
409.039     86.143    -2.611
414.989     86.314    -0.143
421.025     86.382     2.417
427.149     86.475     5.150
433.362     86.533     8.017
439.665     86.668    11.043
446.060     86.890    13.847
452.548     87.110    16.263
459.131     87.303    18.312
465.809     87.436    20.069
472.584     87.516    21.711
479.458     87.569    23.530
486.432     87.567    25.834
493.507     87.565    28.775
500.686     87.562    32.236
507.968     87.704    35.721
515.357     87.946    38.708
522.853     88.276    40.875
530.458     88.511    42.121
538.174     88.544    42.672
546.002     88.496    43.061
553.943     88.264    43.957
562.001     87.923    46.043
570.175     87.585    49.769
578.469     87.411    54.874
586.883     87.559    60.144
595.419     87.909    64.302
604.080     88.318    66.792
612.866     88.608    67.809
621.780     88.651    68.141
630.824     88.513    68.834
640.000     88.197    70.783
649.309     87.926    74.260
658.753     87.872    78.683
668.335     88.061    82.746
678.056     88.380    85.157
687.919     88.619    85.844
697.925     88.614    85.594
708.077     88.379    85.543
718.376     87.975    86.692
728.825     87.504    89.469
739.426     87.180    93.301
750.181     87.115    96.958
761.093     87.022    99.601
772.163     86.834   101.469
783.394     86.491   103.630
794.789     86.020   107.084
806.349     85.618   111.642
818.078     85.423   116.068
829.977     85.315   119.138
842.050     85.056   120.992
854.298     84.547   123.094
866.724     83.932   126.869
879.330     83.517   132.234
892.120     83.440   136.983
905.097     83.457   139.071
918.262     83.196   137.801
931.618     82.321   134.172
945.169     80.609   129.881
958.917     77.774   127.417
972.864     73.340   135.104
987.015     68.101   175.880
1001.37     69.420  -130.260
1015.94     73.124  -110.600
1030.71     75.086  -105.574
1045.71     76.205  -101.091
1060.92     77.223   -96.132
1076.35     78.237   -92.914
1092.00     78.948   -91.554
1107.89     79.240   -90.126
1124.00     79.344   -87.764
1140.35     79.536   -86.268
1156.94     79.668   -87.222
1173.77     79.452   -88.693
1190.84     78.957   -87.294
1208.16     78.664   -83.337
1225.73     78.520   -81.105
1243.56     78.219   -82.335
1261.65     77.523   -83.923
1280.00     76.672   -82.928
1298.62     75.997   -80.647
1317.51     75.346   -79.480
1336.67     74.611   -78.435
1356.11     74.069   -76.695
1375.84     73.561   -76.094
1395.85     72.593   -75.780
1416.15     71.597   -73.049
1436.75     71.468   -71.220
1457.65     71.615   -75.226
1478.85     71.282   -82.889
1500.36     70.566   -89.973
1522.19     70.051   -94.777
1544.33     70.230   -99.837
1566.79     71.042  -109.507
1589.58     71.743  -121.669
1612.70     72.220  -131.040
1636.16     73.140  -139.413
1659.95     74.138  -149.394
1684.10     74.664  -156.056
1708.60     75.488  -159.348
1733.45     76.579  -166.523
1758.66     77.064  -175.460
1784.24     77.242   178.935
1810.19     77.429   173.876
1836.52     77.168   169.607
1863.24     76.959   168.560
1890.34     77.099   167.216
1917.83     77.183   165.575
1945.73     77.429   163.639
1974.03     77.590   158.688
2002.74     77.130   152.594
2031.87     76.181   150.011
2061.43     75.538   151.590
2091.41     75.109   152.426
2121.83     74.567   155.557
2152.69     74.650   158.524
2184.01     74.809   160.280
2215.77     75.537   161.215
2248.00     75.728   156.946
2280.70     75.584   156.943
2313.87     75.916   155.643
2347.53     75.882   154.093
2381.68     75.997   151.707
2416.32     75.657   151.741
2451.46     76.099   152.730
2487.12     76.059   149.328
2523.30     75.801   149.773
2560.00     75.873   150.598
2597.24     76.056   148.956
2635.01     75.688   148.281
2673.34     75.567   149.965
2712.23     75.828   150.938
2751.68     75.774   149.202
2791.70     75.830   151.399
2832.31     76.004   148.079
2873.50     75.621   147.177
2915.30     75.205   147.564
2957.70     75.111   150.656
3000.72     75.214   152.580
3044.37     75.536   152.464
3088.65     75.541   150.696
3133.58     75.492   151.447
3179.16     75.816   150.819
3225.40     75.617   148.551
3272.31     75.388   149.180
3319.91     75.511   149.509
3368.20     75.495   151.166
3417.19     75.842   150.481
3466.89     75.847   148.241
3517.32     75.705   148.975
3568.48     75.770   148.472
3620.39     75.898   148.578
3673.05     76.037   146.077
3726.47     75.637   143.282
3780.67     75.080   144.887
3835.67     75.087   146.103
3891.46     75.044   146.374
3948.06     74.839   145.625
4005.49     74.242   145.628
4063.75     73.851   149.871
4122.86     73.984   153.304
4182.82     74.146   153.743
4243.66     73.958   154.501
4305.39     73.979   157.037
4368.01     74.145   158.323
4431.55     74.307   157.891
4496.01     74.298   157.651
4561.40     74.326   156.705
4627.75     74.040   155.150
4695.06     73.627   156.475
4763.35     73.518   157.507
4832.64     73.265   157.380
4902.93     72.803   158.424
4974.24     72.339   162.020
5046.60     72.385   166.454
5120.00     72.570   167.946
5194.47     72.443   168.189
5270.03     72.230   170.702
5346.68     72.187   172.600
5424.45     72.014   173.299
5503.35     71.726   176.482
5583.40     71.769   178.531
5664.61     71.648   179.614
5747.01     71.430  -178.353
5830.60     71.429  -176.134
5915.41     71.263  -176.335
6001.45     70.833  -174.147
6088.74     70.708  -171.509
6177.30     70.399  -170.240
6267.15     70.196  -166.796
6358.31     70.121  -164.422
6450.80     69.871  -162.267
6544.62     69.571  -158.381
6639.82     69.626  -155.028
6736.40     69.551  -153.235
6834.38     69.317  -151.272
6933.79     68.921  -148.648
7034.64     68.678  -143.629
7136.96     68.882  -138.941
7240.77     69.040  -136.376
7346.09     69.179  -134.358
7452.94     69.175  -132.992
7561.35     69.127  -131.111
7671.33     68.991  -130.084
7782.91     68.724  -127.860
7896.12     68.411  -124.394
8010.97     68.562  -121.233
8127.49     68.263  -121.452
8245.71     67.971  -118.086
8365.65     67.600  -116.522
8487.33     67.035  -112.876
8610.78     66.787  -108.805
8736.03     66.570  -104.498
8863.09     66.480  -101.145
8992.01     66.209   -98.320
9122.80     65.804   -95.861
9255.50     65.310   -93.327
9390.12     64.522   -89.226
9526.70     63.720   -82.973
9665.27     63.125   -74.455
9805.86     62.794   -67.345
9948.49     62.524   -59.201
10093.2     61.988   -52.072
10240.0     61.893   -41.000
10388.9     61.985   -33.541
10540.1     61.945   -27.381
10693.4     61.748   -19.390
10848.9     61.703   -11.071
11006.7     61.525    -3.497
11166.8     61.420     5.975
11329.2     61.354    15.988
11494.0     62.036    31.721
11661.2     63.646    38.394
11830.8     64.567    40.222
12002.9     64.985    41.941
12177.5     65.131    42.040
12354.6     64.682    43.068
12534.3     63.916    47.213
12716.6     62.991    54.639
12901.6     62.494    66.448
13089.2     63.093    80.661
13279.6     64.502    88.365
13472.8     65.633    89.289
13668.8     66.023    86.957
13867.6     65.648    84.926
14069.3     64.628    86.865
14273.9     63.773    94.315
14481.5     63.297   102.231
14692.2     62.946   111.613
14905.9     63.445   120.044
15122.7     63.800   123.586
15342.7     63.468   127.551
15565.8     63.177   134.388
15792.2     63.141   141.324
16021.9     63.250   146.823
16255.0     63.212   151.620
16491.4     62.955   159.206
16731.3     63.529   166.661
16974.7     64.446   169.034
17221.6     64.384   164.978
17472.1     63.022   162.043
17726.2     60.459   168.776
17984.0     58.598  -172.955
18245.6     58.510  -153.260
18511.0     59.283  -141.522
18780.2     59.782  -135.152
19053.4     59.605  -130.273
19330.5     59.316  -124.163
19611.7     59.050  -119.580
19897.0     58.757  -115.996
20186.4     58.801  -109.974
20480.0     58.831  -104.054
20777.9     58.847   -98.198
21080.1     58.852   -92.379
21386.7     58.848   -86.582
21697.8     58.836   -80.800
22013.4     58.818   -75.023
22333.6     58.794   -69.247
22658.4     58.766   -63.468
22988.0     58.734   -57.692
23322.4     58.700   -51.910
23661.6     58.663   -46.124
24005.8     58.625   -40.336
24355.0     58.584   -34.545
24709.2     58.543   -28.748
25068.6     58.500   -22.948
25433.2     58.455   -17.144
25803.2     58.410   -11.341
26178.5     58.364    -5.533
26559.3     58.318     0.279
26945.6     58.271     6.091
27337.5     58.223    11.907
27735.2     58.175    17.723
28138.6     58.127    23.544
28547.9     58.078    29.363
28963.1     58.028    35.187
29384.4     57.979    41.011
29811.8     57.930    46.837
30245.4     57.879    52.664
30685.3     57.830    58.492
31131.7     57.779    64.320
31584.5     57.728    70.150
32043.9     57.678    75.982
32510.0     57.627    81.814
32982.8     57.576    87.648
33462.6     57.525    93.480
33949.3     57.474    99.314
34443.1     57.422   105.150
34944.1     57.371   110.985
35452.4     57.319   116.821
35968.0     57.268   122.659
36491.2     57.216   128.495
37022.0     57.165   134.333
37560.5     57.113   140.172
38106.8     57.061   146.011
38661.1     57.009   151.850
39223.4     56.957   157.689
39793.9     56.906   163.530
