Freq[Hz]     dBSPL  Phase[Deg]
5.00000     45.498   -12.028
5.07273     45.160    -4.321
5.14651     44.722     3.498
5.22137     43.285     1.593
5.29732     41.847    -0.315
5.37437     40.410    -2.224
5.45254     38.973    -4.130
5.53185     37.435     3.537
5.61231     35.797    21.338
5.69394     34.160    39.139
5.77676     32.422    56.939
5.86079     30.884    74.514
5.94604     32.748    78.993
6.03252     34.710    83.470
6.12027     36.672    87.948
6.20929     38.635    92.424
6.29961     39.397    90.142
6.39124     39.959    86.358
6.48420     40.522    82.576
6.57851     41.085    78.792
6.67420     41.047    73.727
6.77128     40.810    68.452
6.86977     40.572    63.176
6.96969     40.234    57.724
7.07107     38.997    50.926
7.17392     37.759    44.127
7.27827     36.522    37.330
7.38413     33.885    21.843
7.49154     30.147    -0.353
7.60050     26.409   -22.552
7.71105     23.972   -47.759
7.82321     27.234   -86.177
7.93701     30.597  -124.589
8.05245     33.960  -163.014
8.16958     35.522  -172.863
8.28841     36.984   178.357
8.40896     38.547   169.576
8.53128     39.009   161.954
8.65537     39.471   154.481
8.78126     39.835   147.005
8.90899     39.497   139.412
9.03857     39.059   131.810
9.17004     38.522   124.119
9.30342     36.984   115.727
9.43874     35.546   107.334
9.57603     32.909    95.386
9.71532     28.472    78.005
9.85663     24.034    60.623
10.0000     25.997     7.085
10.1455     29.758   -56.500
10.2930     33.121  -106.229
10.4427     35.484  -116.965
10.5946     37.746  -127.693
10.7487     39.009  -136.107
10.9051     39.972  -144.055
11.0637     40.734  -151.455
11.2246     41.096  -158.272
11.3879     41.359  -164.651
11.5535     41.421  -169.456
11.7216     41.384  -174.204
11.8921     41.347  -175.795
12.0650     41.209  -177.386
12.2405     41.571  -176.457
12.4186     41.934  -175.206
12.5992     42.696  -174.263
12.7825     43.658  -173.389
12.9684     44.722  -174.447
13.1570     45.884  -175.957
13.3484     46.846  -178.903
13.5426     47.809   177.916
13.7395     48.571   174.357
13.9394     49.333   170.847
14.1421     49.896   167.803
14.3478     50.459   165.064
14.5565     51.021   162.974
14.7683     51.584   161.376
14.9831     52.046   160.154
15.2010     52.508   159.357
15.4221     52.971   158.683
15.6464     53.433   158.237
15.8740     53.896   158.046
16.1049     54.359   158.055
16.3392     54.821   158.798
16.5768     55.283   159.826
16.8179     55.946   161.229
17.0626     56.608   162.439
17.3107     57.370   163.154
17.5625     58.234   163.148
17.8180     59.096   161.740
18.0771     59.758   159.692
18.3401     60.321   157.085
18.6068     60.783   154.204
18.8775     61.045   151.658
19.1521     61.309   149.578
19.4306     61.571   148.080
19.7133     61.933   147.219
20.0000     62.396   146.288
20.2909     63.058   144.891
20.5860     63.677   142.815
20.8855     64.199   139.852
21.1893     64.899   136.000
21.4975     65.329   131.711
21.8102     65.799   127.198
22.1274     66.199   122.594
22.4492     66.568   117.995
22.7758     66.899   113.519
23.1071     67.089   109.384
23.4432     67.099   106.007
23.7841     67.199   104.117
24.1301     67.310   104.138
24.4811     67.699   105.762
24.8372     68.499   107.727
25.1984     69.499   108.477
25.5649     70.618   107.153
25.9368     71.617   103.884
26.3141     72.299    99.414
26.6968     72.809    94.689
27.0851     73.099    90.659
27.4791     73.296    88.198
27.8788     73.299    87.734
28.2843     73.599    88.679
28.6957     74.263    89.654
29.1131     75.099    89.255
29.5365     75.899    86.882
29.9661     76.699    82.855
30.4020     77.099    78.017
30.8442     77.399    73.462
31.2929     77.454    69.911
31.7480     77.599    67.454
32.2098     77.799    65.602
32.6783     78.099    63.562
33.1536     78.499    61.015
33.6359     78.814    58.190
34.1251     79.199    55.447
34.6215     79.445    52.890
35.1250     79.799    50.290
35.6359     80.068    47.380
36.1543     80.471    44.238
36.6802     80.799    41.141
37.2137     80.937    38.389
37.7550     81.099    36.033
38.3041     81.240    33.934
38.8613     81.399    31.803
39.4265     81.699    29.547
40.0000     81.699    27.390
40.5818     81.899    25.565
41.1721     82.199    23.907
41.7710     82.299    22.000
42.3785     82.599    19.718
42.9949     82.758    17.540
43.6203     82.999    15.667
44.2548     83.199    13.680
44.8985     83.499    11.153
45.5515     83.599     8.451
46.2141     83.799     6.084
46.8863     83.899     4.044
47.5683     84.099     2.022
48.2602     84.121     0.108
48.9621     84.299    -1.531
49.6743     84.499    -3.029
50.3968     84.637    -4.509
51.1299     84.799    -5.963
51.8736     84.999    -7.493
52.6281     85.299    -9.207
53.3936     85.499   -11.102
54.1702     85.699   -13.141
54.9581     85.699   -15.153
55.7575     85.999   -17.062
56.5685     86.152   -19.085
57.3914     86.199   -21.034
58.2261     86.200   -22.334
59.0730     86.399   -23.280
59.9323     86.599   -24.587
60.8040     86.599   -25.705
61.6884     86.899   -26.380
62.5857     87.299   -28.003
63.4960     87.438   -30.229
64.4196     87.599   -31.281
65.3566     87.946   -32.499
66.3073     88.099   -34.833
67.2717     88.299   -36.619
68.2502     88.436   -38.196
69.2429     88.599   -39.499
70.2501     88.816   -40.688
71.2719     88.999   -43.150
72.3086     89.144   -45.149
73.3603     89.299   -46.183
74.4274     89.599   -47.526
75.5099     89.918   -49.438
76.6083     90.099   -51.283
77.7226     90.276   -53.352
78.8531     90.299   -54.927
80.0000     90.654   -56.375
81.1636     90.862   -58.546
82.3442     91.084   -60.254
83.5419     91.099   -61.973
84.7570     91.355   -63.584
85.9899     91.499   -65.382
87.2406     91.721   -67.343
88.5096     91.999   -69.336
89.7970     92.279   -71.501
91.1031     92.522   -74.019
92.4282     92.699   -76.470
93.7726     92.799   -79.251
95.1366     93.121   -82.579
96.5204     93.043   -85.812
97.9243     93.199   -88.888
99.3486     93.199   -91.808
100.794     92.999   -94.110
102.260     93.021   -95.978
103.747     93.167   -97.833
105.256     93.294  -100.102
106.787     93.291  -102.676
108.340     93.386  -105.319
109.916     93.283  -108.022
111.515     93.475  -110.735
113.137     93.370  -113.461
114.783     93.263  -116.095
116.452     93.255  -118.573
118.146     93.147  -120.944
119.865     93.007  -123.390
121.608     92.829  -125.108
123.377     92.898  -127.011
125.171     92.777  -129.015
126.992     92.676  -131.147
128.839     92.388  -133.246
130.713     92.339  -135.322
132.615     92.122  -137.360
134.543     91.980  -139.435
136.500     91.812  -141.605
138.486     91.633  -143.493
140.500     91.351  -145.185
142.544     91.045  -146.605
144.617     90.769  -147.630
146.721     90.558  -148.411
148.855     90.304  -149.255
151.020     90.001  -150.057
153.217     89.740  -150.608
155.445     89.510  -150.974
157.706     89.270  -151.324
160.000     89.022  -151.675
162.327     88.704  -151.674
164.688     88.457  -151.058
167.084     88.224  -149.940
169.514     88.101  -148.967
171.980     88.042  -148.200
174.481     87.896  -147.481
177.019     87.860  -146.716
179.594     87.824  -145.810
182.206     87.921  -145.035
184.856     88.000  -144.745
187.545     88.096  -144.764
190.273     88.230  -144.922
193.041     88.406  -145.281
195.849     88.524  -145.949
198.697     88.578  -146.892
201.587     88.641  -147.900
204.520     88.727  -149.007
207.494     88.726  -150.242
210.512     88.705  -151.632
213.574     88.630  -153.015
216.681     88.592  -154.237
219.833     88.514  -155.335
223.030     88.403  -156.250
226.274     88.271  -157.029
229.565     88.144  -157.734
232.905     88.008  -158.341
236.292     87.852  -158.782
239.729     87.747  -159.057
243.216     87.655  -159.186
246.754     87.536  -159.196
250.343     87.416  -159.107
253.984     87.306  -158.912
257.678     87.224  -158.649
261.426     87.192  -158.372
265.229     87.196  -158.125
269.087     87.192  -157.932
273.001     87.186  -157.801
276.972     87.098  -157.738
281.000     87.095  -157.733
285.088     87.091  -157.786
289.234     87.095  -157.880
293.441     87.095  -157.997
297.709     87.094  -158.119
302.040     87.028  -158.233
306.433     86.994  -158.330
310.890     86.922  -158.400
315.412     86.893  -158.432
320.000     86.892  -158.421
324.655     86.892  -158.366
329.377     86.793  -158.265
334.168     86.791  -158.100
339.028     86.697  -157.878
343.959     86.691  -157.597
348.962     86.706  -157.264
354.038     86.789  -156.887
359.188     86.790  -156.466
364.412     86.789  -156.028
369.713     86.839  -155.620
375.090     86.915  -155.278
380.546     87.041  -155.028
386.081     87.194  -154.915
391.697     87.318  -154.963
397.394     87.442  -155.199
403.175     87.558  -155.613
409.039     87.708  -156.239
414.989     87.871  -157.092
421.025     88.012  -158.168
427.149     88.081  -159.472
433.362     88.180  -161.013
439.665     88.179  -162.904
446.060     88.272  -165.039
452.548     88.199  -167.377
459.131     88.042  -169.911
465.809     87.794  -172.530
472.584     87.444  -174.999
479.458     87.048  -177.103
486.432     86.530  -178.647
493.507     85.915  -179.321
500.686     85.247  -178.880
507.968     84.639  -177.311
515.357     84.196  -174.940
522.853     83.948  -172.279
530.458     83.806  -169.955
538.174     83.682  -168.401
546.002     83.592  -167.571
553.943     83.428  -167.099
562.001     83.173  -166.487
570.175     82.854  -165.254
578.469     82.563  -163.207
586.883     82.402  -160.695
595.419     82.392  -158.415
604.080     82.430  -156.981
612.866     82.467  -156.629
621.780     82.335  -157.010
630.824     81.977  -157.258
640.000     81.441  -156.234
649.309     80.850  -153.017
658.753     80.484  -147.468
668.335     80.539  -140.870
678.056     81.034  -135.652
687.919     81.711  -132.914
697.925     82.303  -132.291
708.077     82.743  -132.759
718.376     83.068  -133.391
728.825     83.283  -133.790
739.426     83.518  -134.113
750.181     83.815  -134.809
761.093     84.039  -136.148
772.163     84.141  -137.902
783.394     84.158  -139.534
794.789     84.048  -140.488
806.349     83.947  -140.619
818.078     83.974  -140.544
829.977     84.128  -141.161
842.050     84.242  -142.905
854.298     84.256  -145.402
866.724     84.129  -147.859
879.330     83.960  -149.916
892.120     83.831  -151.806
905.097     83.712  -154.381
918.262     83.463  -158.915
931.618     82.818  -165.394
945.169     81.482  -172.253
958.917     79.237  -175.995
972.864     76.166  -169.740
987.015     73.878  -148.930
1001.37     74.575  -127.553
1015.94     76.282  -119.197
1030.71     77.351  -118.481
1045.71     77.898  -119.297
1060.92     78.249  -120.341
1076.35     78.444  -122.252
1092.00     78.415  -124.885
1107.89     78.160  -126.818
1124.00     77.887  -127.164
1140.35     77.909  -127.396
1156.94     78.014  -129.681
1173.77     77.813  -133.642
1190.84     77.259  -136.748
1208.16     76.619  -137.440
1225.73     76.204  -137.192
1243.56     75.966  -138.147
1261.65     75.633  -139.695
1280.00     75.248  -140.069
1298.62     75.104  -139.871
1317.51     75.115  -141.194
1336.67     74.975  -143.628
1356.11     74.756  -145.257
1375.84     74.723  -146.595
1395.85     74.733  -148.845
1416.15     74.704  -150.370
1436.75     74.934  -150.250
1457.65     75.444  -151.685
1478.85     75.802  -155.665
1500.36     75.904  -159.536
1522.19     75.986  -162.095
1544.33     76.242  -164.789
1566.79     76.508  -168.547
1589.58     76.687  -172.770
1612.70     76.833  -176.876
1636.16     77.058   178.770
1659.95     77.192   173.762
1684.10     77.128   169.299
1708.60     77.086   166.586
1733.45     77.311   164.367
1758.66     77.755   161.094
1784.24     78.303   155.989
1810.19     78.688   148.496
1836.52     78.729   140.156
1863.24     78.592   132.611
1890.34     78.350   125.381
1917.83     77.860   119.588
1945.73     77.523   115.716
1974.03     77.444   110.417
2002.74     77.099   103.580
2031.87     76.490    97.833
2061.43     75.757    92.868
2091.41     74.686    88.754
2121.83     73.333    89.735
2152.69     72.847    95.796
2184.01     73.294    98.124
2215.77     73.389    96.938
2248.00     73.350    97.202
2280.70     73.503    97.298
2313.87     73.701    97.062
2347.53     74.060    97.199
2381.68     74.690    95.188
2416.32     74.982    90.245
2451.46     74.932    87.199
2487.12     75.080    85.104
2523.30     75.170    81.705
2560.00     75.093    77.919
2597.24     75.045    74.867
2635.01     75.013    71.597
2673.34     74.959    69.297
2712.23     74.982    65.160
2751.68     74.592    61.472
2791.70     74.393    59.906
2832.31     74.222    56.903
2873.50     73.797    54.579
2915.30     73.379    52.576
2957.70     72.749    52.435
3000.72     72.661    54.364
3044.37     72.571    53.328
3088.65     72.243    53.342
3133.58     72.097    55.151
3179.16     72.298    58.310
3225.40     72.899    57.776
3272.31     73.182    55.912
3319.91     73.577    53.754
3368.20     73.864    51.532
3417.19     74.249    47.051
3466.89     74.132    40.310
3517.32     73.485    36.098
3568.48     72.860    36.266
3620.39     72.947    35.366
3673.05     72.554    32.021
3726.47     71.907    31.674
3780.67     71.590    33.925
3835.67     71.693    34.591
3891.46     71.616    34.838
3948.06     71.784    35.136
4005.49     71.945    33.636
4063.75     71.857    31.468
4122.86     71.593    31.281
4182.82     71.641    31.686
4243.66     71.849    31.401
4305.39     72.060    29.398
4368.01     72.069    26.627
4431.55     71.816    23.422
4496.01     71.388    22.173
4561.40     71.226    21.958
4627.75     70.981    20.276
4695.06     70.555    22.391
4763.35     70.827    23.322
4832.64     70.913    22.548
4902.93     71.038    20.929
4974.24     70.939    19.692
5046.60     71.126    17.430
5120.00     70.739    13.720
5194.47     70.223    13.683
5270.03     70.098    14.256
5346.68     70.031    13.377
5424.45     69.892    11.715
5503.35     69.582     9.992
5583.40     69.149    10.293
5664.61     68.865    10.841
5747.01     68.696    12.661
5830.60     68.922    13.250
5915.41     68.770    11.872
6001.45     68.656    11.302
6088.74     68.461    10.881
6177.30     68.359    10.360
6267.15     68.249    10.791
6358.31     68.389     9.762
6450.80     68.083     8.080
6544.62     67.835     6.906
6639.82     67.252     7.976
6736.40     67.344    11.280
6834.38     67.628    11.549
6933.79     67.967    10.653
7034.64     67.895     7.613
7136.96     67.549     6.190
7240.77     67.205     7.511
7346.09     67.242     9.563
7452.94     67.393     9.685
7561.35     67.506     9.789
7671.33     67.587     9.568
7782.91     67.927     9.202
7896.12     68.200     6.556
8010.97     67.969     3.060
8127.49     67.606     1.262
8245.71     67.471     1.100
8365.65     67.391     0.478
8487.33     67.314    -0.113
8610.78     67.284    -0.609
8736.03     67.332    -1.369
8863.09     67.431    -3.740
8992.01     67.219    -6.519
9122.80     66.753    -7.296
9255.50     66.588    -5.015
9390.12     66.880    -4.122
9526.70     67.262    -7.075
9665.27     67.077   -11.882
9805.86     66.334   -15.065
9948.49     65.377   -12.939
10093.2     65.060    -6.917
10240.0     65.755    -2.646
10388.9     66.603    -5.176
10540.1     66.561   -11.214
10693.4     65.794   -12.794
10848.9     65.590   -10.448
11006.7     66.068   -10.338
11166.8     66.400   -16.191
11329.2     65.537   -24.076
11494.0     64.014   -21.186
11661.2     64.057   -14.383
11830.8     64.912   -11.890
12002.9     65.902   -16.405
12177.5     66.120   -27.098
12354.6     64.987   -37.822
12534.3     62.996   -40.091
12716.6     61.532   -36.071
12901.6     60.827   -32.619
13089.2     60.159   -31.876
13279.6     59.163   -27.839
13472.8     59.125   -19.676
13668.8     60.177   -19.282
13867.6     60.061   -27.770
14069.3     58.718   -30.260
14273.9     57.811   -26.344
14481.5     57.738   -23.997
14692.2     57.510   -23.417
14905.9     57.243   -21.996
15122.7     57.078   -21.674
15342.7     56.954   -21.840
15565.8     57.109   -22.781
15792.2     56.968   -25.901
16021.9     56.592   -27.318
16255.0     56.743   -29.038
16491.4     56.710   -36.893
16731.3     55.522   -44.972
16974.7     54.018   -48.281
17221.6     51.719   -45.776
17472.1     49.488   -26.339
17726.2     49.813   -16.564
17984.0     49.653    -2.745
18245.6     51.492     5.690
18511.0     52.481     1.983
18780.2     52.947    -1.939
19053.4     53.295   -13.328
19330.5     52.335   -20.645
19611.7     51.111   -26.190
19897.0     49.225   -31.637
20186.4     48.941   -31.615
20480.0     48.643   -31.694
20777.9     48.330   -31.835
21080.1     48.008   -32.016
21386.7     47.675   -32.219
21697.8     47.335   -32.435
22013.4     46.989   -32.656
22333.6     46.637   -32.879
22658.4     46.281   -33.102
22988.0     45.921   -33.322
23322.4     45.559   -33.539
23661.6     45.194   -33.753
24005.8     44.828   -33.963
24355.0     44.459   -34.169
24709.2     44.089   -34.372
25068.6     43.718   -34.571
25433.2     43.345   -34.767
25803.2     42.973   -34.961
26178.5     42.598   -35.152
26559.3     42.224   -35.340
26945.6     41.849   -35.525
27337.5     41.473   -35.709
27735.2     41.097   -35.890
28138.6     40.720   -36.070
28547.9     40.344   -36.248
28963.1     39.966   -36.424
29384.4     39.588   -36.598
29811.8     39.211   -36.771
30245.4     38.832   -36.943
30685.3     38.455   -37.115
31131.7     38.076   -37.284
31584.5     37.697   -37.453
32043.9     37.319   -37.621
32510.0     36.940   -37.787
32982.8     36.560   -37.954
33462.6     36.181   -38.119
33949.3     35.802   -38.283
34443.1     35.422   -38.447
34944.1     35.043   -38.610
35452.4     34.663   -38.773
35968.0     34.284   -38.935
36491.2     33.904   -39.096
37022.0     33.524   -39.257
37560.5     33.145   -39.417
38106.8     32.764   -39.578
38661.1     32.384   -39.737
39223.4     32.005   -39.896
39793.9     31.625   -40.055
