Freq[Hz]     dBSPL  Phase[Deg]
5.00000     42.838   -20.081
5.07273     42.518   -12.367
5.14651     42.098    -4.540
5.22137     40.678    -6.439
5.29732     39.258    -8.340
5.37437     37.838   -10.241
5.45254     36.418   -12.140
5.53185     34.898    -4.465
5.61231     33.278    13.343
5.69394     31.658    31.152
5.77676     29.938    48.960
5.86079     28.418    66.543
5.94604     30.299    71.030
6.03252     32.278    75.515
6.12027     34.258    80.002
6.20929     36.238    84.486
6.29961     37.018    82.212
6.39124     37.598    78.437
6.48420     38.178    74.664
6.57851     38.759    70.889
6.67420     38.738    65.833
6.77128     38.518    60.568
6.86977     38.298    55.301
6.96969     37.978    49.858
7.07107     36.758    43.070
7.17392     35.538    36.281
7.27827     34.319    29.493
7.38413     31.698    14.016
7.49154     27.978    -8.169
7.60050     24.258   -30.359
7.71105     21.838   -55.555
7.82321     25.118   -93.962
7.93701     28.499  -132.363
8.05245     31.879  -170.777
8.16958     33.459   179.385
8.28841     34.938   170.616
8.40896     36.518   161.846
8.53128     36.998   154.237
8.65537     37.478   146.775
8.78126     37.859   139.311
8.90899     37.539   131.730
9.03857     37.119   124.140
9.17004     36.598   116.462
9.30342     35.078   108.082
9.43874     33.658    99.702
9.57603     31.038    87.767
9.71532     26.619    70.400
9.85663     22.199    53.031
10.0000     24.179    -0.494
10.1455     27.957   -64.065
10.2930     31.338  -113.780
10.4427     33.718  -124.502
10.5946     35.998  -135.215
10.7487     37.279  -143.615
10.9051     38.259  -151.547
11.0637     39.039  -158.933
11.2246     39.419  -165.735
11.3879     39.698  -172.098
11.5535     39.778  -176.888
11.7216     39.759   178.381
11.8921     39.739   176.806
12.0650     39.619   175.231
12.2405     39.999   176.177
12.4186     40.379   177.444
12.5992     41.158   178.405
12.7825     42.138   179.296
12.9684     43.219   178.256
13.1570     44.399   176.763
13.3484     45.379   173.836
13.5426     46.359   170.674
13.7395     47.139   167.133
13.9394     47.918   163.642
14.1421     48.498   160.617
14.3478     49.079   157.898
14.5565     49.659   155.828
14.7683     50.239   154.249
14.9831     50.719   153.048
15.2010     51.199   152.272
15.4221     51.678   151.619
15.6464     52.158   151.194
15.8740     52.639   151.024
16.1049     53.119   151.055
16.3392     53.599   151.821
16.5768     54.079   152.871
16.8179     54.759   154.297
17.0626     55.439   155.530
17.3107     56.218   156.269
17.5625     57.099   156.286
17.8180     57.979   154.903
18.0771     58.659   152.879
18.3401     59.239   150.297
18.6068     59.719   147.441
18.8775     59.999   144.922
19.1521     60.279   142.867
19.4306     60.559   141.396
19.7133     60.939   140.561
20.0000     61.419   139.658
20.2909     62.099   138.288
20.5860     62.777   136.220
20.8855     63.299   133.267
21.1893     63.999   129.428
21.4975     64.499   125.155
21.8102     64.999   120.663
22.1274     65.399   116.081
22.4492     65.768   111.507
22.7758     66.099   107.059
23.1071     66.299   102.955
23.4432     66.399    99.612
23.7841     66.499    97.759
24.1301     66.610    97.819
24.4811     66.999    99.486
24.8372     67.799   101.496
25.1984     68.799   102.292
25.5649     69.918   101.019
25.9368     70.999    97.802
26.3141     71.699    93.387
26.6968     72.209    88.719
27.0851     72.499    84.747
27.4791     72.696    82.347
27.8788     72.699    81.946
28.2843     72.999    82.955
28.6957     73.663    83.996
29.1131     74.549    83.664
29.5365     75.399    81.360
29.9661     76.199    77.402
30.4020     76.599    72.635
30.8442     76.899    68.151
31.2929     76.954    64.672
31.7480     77.099    62.287
32.2098     77.299    60.508
32.6783     77.599    58.540
33.1536     78.052    56.065
33.6359     78.414    53.312
34.1251     78.799    50.641
34.6215     79.045    48.155
35.1250     79.399    45.625
35.6359     79.668    42.785
36.1543     79.999    39.711
36.6802     80.299    36.682
37.2137     80.437    33.995
37.7550     80.699    31.703
38.3041     80.840    29.668
38.8613     80.999    27.597
39.4265     81.299    25.400
40.0000     81.299    23.301
40.5818     81.499    21.531
41.1721     81.799    19.925
41.7710     81.899    18.069
42.3785     82.199    15.836
42.9949     82.358    13.705
43.6203     82.599    11.875
44.2548     82.799     9.929
44.8985     83.099     7.441
45.5515     83.199     4.775
46.2141     83.399     2.441
46.8863     83.596     0.431
47.5683     83.699    -1.563
48.2602     83.721    -3.451
48.9621     83.899    -5.068
49.6743     84.099    -6.546
50.3968     84.299    -8.009
51.1299     84.399    -9.449
51.8736     84.599   -10.967
52.6281     84.899   -12.673
53.3936     85.099   -14.562
54.1702     85.299   -16.598
54.9581     85.299   -18.610
55.7575     85.599   -20.521
56.5685     85.752   -22.549
57.3914     85.799   -24.506
58.2261     85.800   -25.817
59.0730     85.999   -26.776
59.9323     86.199   -28.099
60.8040     86.199   -29.235
61.6884     86.499   -29.930
62.5857     86.899   -31.576
63.4960     87.038   -33.829
64.4196     87.199   -34.908
65.3566     87.546   -36.157
66.3073     87.699   -38.524
67.2717     87.899   -40.345
68.2502     88.036   -41.960
69.2429     88.199   -43.302
70.2501     88.416   -44.532
71.2719     88.599   -47.039
72.3086     88.744   -49.083
73.3603     88.899   -50.165
74.4274     89.199   -51.558
75.5099     89.518   -53.522
76.6083     89.780   -55.420
77.7226     89.876   -57.545
78.8531     89.899   -59.178
80.0000     90.299   -60.684
81.1636     90.462   -62.916
82.3442     90.684   -64.686
83.5419     90.699   -66.470
84.7570     90.955   -68.146
85.9899     91.118   -70.012
87.2406     91.399   -72.042
88.5096     91.699   -74.106
89.7970     91.979   -76.344
91.1031     92.122   -78.936
92.4282     92.299   -81.464
93.7726     92.499   -84.322
95.1366     92.721   -87.730
96.5204     92.743   -91.044
97.9243     92.799   -94.204
99.3486     92.899   -97.210
100.794     92.699   -99.600
102.260     92.698  -101.558
103.747     92.767  -103.506
105.256     92.894  -105.870
106.787     92.991  -108.543
108.340     93.086  -111.288
109.916     92.983  -114.096
111.515     93.175  -116.917
113.137     93.070  -119.755
114.783     92.963  -122.506
116.452     92.856  -125.106
118.146     92.786  -127.602
119.865     92.707  -130.181
121.608     92.529  -132.036
123.377     92.598  -134.083
125.171     92.477  -136.236
126.992     92.376  -138.525
128.839     92.088  -140.789
130.713     92.039  -143.038
132.615     91.822  -145.257
134.543     91.680  -147.527
136.500     91.512  -149.900
138.486     91.313  -151.979
140.500     91.001  -153.887
142.544     90.729  -155.549
144.617     90.449  -156.800
146.721     90.208  -157.809
148.855     89.954  -158.905
151.020     89.618  -159.958
153.217     89.340  -160.757
155.445     89.094  -161.365
157.706     88.837  -161.951
160.000     88.551  -162.547
162.327     88.221  -162.780
164.688     87.957  -162.371
167.084     87.695  -161.470
169.514     87.587  -160.728
171.980     87.442  -160.194
174.481     87.346  -159.695
177.019     87.274  -159.163
179.594     87.238  -158.522
182.206     87.334  -158.053
184.856     87.385  -158.090
187.545     87.496  -158.438
190.273     87.617  -158.973
193.041     87.778  -159.732
195.849     87.874  -160.825
198.697     87.878  -162.244
201.587     87.903  -163.752
204.520     87.927  -165.379
207.494     87.926  -167.154
210.512     87.872  -169.133
213.574     87.780  -171.115
216.681     87.667  -172.907
219.833     87.491  -174.609
223.030     87.281  -176.148
226.274     87.049  -177.523
229.565     86.800  -178.778
232.905     86.530  -179.870
236.292     86.219   179.289
239.729     85.947   178.706
243.216     85.677   178.401
246.754     85.376   178.366
250.343     85.066   178.590
253.984     84.796   179.075
257.678     84.554   179.758
261.426     84.337  -179.421
265.229     84.216  -178.573
269.087     84.128  -177.763
273.001     84.006  -177.039
276.972     83.935  -176.432
281.000     83.850  -175.924
285.088     83.766  -175.523
289.234     83.695  -175.226
293.441     83.603  -174.995
297.709     83.567  -174.786
302.040     83.453  -174.560
306.433     83.327  -174.267
310.890     83.152  -173.865
315.412     83.018  -173.340
320.000     82.885  -172.672
324.655     82.767  -171.858
329.377     82.631  -170.897
334.168     82.470  -169.703
339.028     82.343  -168.370
343.959     82.269  -166.921
348.962     82.213  -165.397
354.038     82.289  -163.842
359.188     82.290  -162.255
364.412     82.289  -160.701
369.713     82.381  -159.304
375.090     82.508  -158.114
380.546     82.688  -157.127
386.081     82.874  -156.392
391.697     83.043  -155.878
397.394     83.217  -155.562
403.175     83.365  -155.419
409.039     83.531  -155.404
414.989     83.746  -155.512
421.025     83.935  -155.764
427.149     84.106  -156.203
433.362     84.263  -156.894
439.665     84.440  -157.962
446.060     84.631  -159.411
452.548     84.743  -161.230
459.131     84.753  -163.407
465.809     84.636  -165.819
472.584     84.421  -168.188
479.458     84.122  -170.225
486.432     83.694  -171.636
493.507     83.125  -171.991
500.686     82.532  -170.948
507.968     82.054  -168.533
515.357     81.786  -165.290
522.853     81.810  -162.061
530.458     81.982  -159.747
538.174     82.154  -158.818
546.002     82.306  -159.071
553.943     82.334  -159.984
562.001     82.200  -160.891
570.175     81.950  -161.124
578.469     81.677  -160.271
586.883     81.502  -158.499
595.419     81.518  -156.573
604.080     81.693  -155.404
612.866     81.917  -155.594
621.780     82.047  -157.112
630.824     81.921  -159.336
640.000     81.545  -161.265
649.309     80.954  -161.880
658.753     80.284  -160.360
668.335     79.739  -156.516
678.056     79.530  -151.618
687.919     79.715  -147.325
697.925     80.047  -144.557
708.077     80.404  -143.074
718.376     80.743  -142.050
728.825     81.062  -141.078
739.426     81.476  -140.470
750.181     82.005  -140.975
761.093     82.469  -143.094
772.163     82.721  -146.588
783.394     82.745  -150.728
794.789     82.458  -154.456
806.349     81.931  -156.563
818.078     81.417  -156.647
829.977     81.140  -155.551
842.050     81.142  -154.970
854.298     81.204  -156.027
866.724     81.162  -158.467
879.330     80.903  -161.313
892.120     80.457  -163.474
905.097     79.912  -164.689
918.262     79.363  -166.311
931.618     78.629  -169.297
945.169     77.385  -172.902
958.917     75.303  -173.675
972.864     72.495  -164.033
987.015     70.925  -140.116
1001.37     72.525  -118.767
1015.94     74.710  -112.331
1030.71     76.076  -113.671
1045.71     76.820  -116.468
1060.92     77.318  -119.162
1076.35     77.730  -122.526
1092.00     77.987  -127.255
1107.89     77.874  -132.468
1124.00     77.480  -136.286
1140.35     77.096  -137.986
1156.94     76.955  -139.298
1173.77     76.942  -142.256
1190.84     76.695  -146.487
1208.16     76.230  -150.051
1225.73     75.733  -152.223
1243.56     75.413  -154.250
1261.65     75.163  -157.293
1280.00     74.808  -161.076
1298.62     74.342  -165.137
1317.51     73.737  -169.559
1336.67     72.864  -172.958
1356.11     71.948  -172.529
1375.84     71.732  -169.822
1395.85     72.052  -170.873
1416.15     72.032  -175.744
1436.75     71.507  -178.687
1457.65     71.082  -177.567
1478.85     71.216  -175.238
1500.36     71.780  -174.841
1522.19     72.388  -177.277
1544.33     72.730   178.669
1566.79     72.874   175.307
1589.58     73.162   172.537
1612.70     73.515   168.525
1636.16     73.735   163.795
1659.95     73.932   159.639
1684.10     74.242   155.547
1708.60     74.674   150.276
1733.45     74.994   143.245
1758.66     75.000   136.054
1784.24     74.989   130.486
1810.19     75.125   123.961
1836.52     74.926   115.662
1863.24     74.451   109.799
1890.34     74.403   105.190
1917.83     74.456    97.234
1945.73     73.960    87.870
1974.03     73.072    80.183
2002.74     72.036    74.238
2031.87     70.818    69.370
2061.43     69.148    67.837
2091.41     67.605    74.708
2121.83     67.568    82.696
2152.69     67.776    83.470
2184.01     67.428    85.925
2215.77     67.817    92.084
2248.00     68.658    93.740
2280.70     69.179    94.013
2313.87     70.250    94.303
2347.53     71.346    87.752
2381.68     71.367    78.953
2416.32     70.913    75.365
2451.46     71.063    74.442
2487.12     71.354    70.027
2523.30     71.185    66.080
2560.00     71.348    61.777
2597.24     70.867    54.899
2635.01     69.821    55.050
2673.34     69.859    58.149
2712.23     70.233    56.214
2751.68     70.344    53.766
2791.70     70.430    49.426
2832.31     69.980    46.002
2873.50     69.727    45.326
2915.30     69.650    43.437
2957.70     69.544    41.244
3000.72     69.459    37.976
3044.37     68.903    35.659
3088.65     68.423    36.498
3133.58     68.144    37.464
3179.16     68.247    38.965
3225.40     68.377    36.128
3272.31     67.699    36.298
3319.91     67.814    41.677
3368.20     68.839    42.805
3417.19     69.648    36.837
3466.89     69.406    28.651
3517.32     68.529    28.826
3568.48     68.959    30.179
3620.39     69.358    22.855
3673.05     68.431    15.629
3726.47     67.188    18.327
3780.67     67.294    22.270
3835.67     67.341    17.028
3891.46     65.828    20.215
3948.06     66.450    31.269
4005.49     67.720    28.870
4063.75     67.655    21.786
4122.86     67.115    24.332
4182.82     68.134    23.853
4243.66     68.265    16.231
4305.39     67.691    10.074
4368.01     66.896     9.706
4431.55     66.482     6.683
4496.01     65.261     6.586
4561.40     64.673    14.780
4627.75     65.299    16.971
4695.06     65.032    18.493
4763.35     65.788    23.222
4832.64     66.524    18.914
4902.93     66.390    13.821
4974.24     66.084    12.351
5046.60     66.038     9.448
5120.00     65.337     7.273
5194.47     64.821    11.447
5270.03     65.282    13.512
5346.68     65.438    11.464
5424.45     65.642     9.785
5503.35     65.495     5.181
5583.40     64.774     4.585
5664.61     64.581     5.829
5747.01     64.391     6.107
5830.60     64.425     7.929
5915.41     64.585     6.309
6001.45     64.481     5.059
6088.74     64.589     1.352
6177.30     64.049    -1.598
6267.15     63.586    -0.395
6358.31     63.481    -1.221
6450.80     63.126     0.513
6544.62     63.157     0.397
6639.82     62.998     1.416
6736.40     63.439     1.357
6834.38     63.360    -0.008
6933.79     63.307    -1.968
7034.64     63.124    -2.212
7136.96     63.119    -2.694
7240.77     62.989    -2.104
7346.09     62.777    -2.415
7452.94     62.517    -2.371
7561.35     62.464    -0.078
7671.33     62.798     1.724
7782.91     63.322     0.214
7896.12     63.667    -4.373
8010.97     63.191    -8.711
8127.49     62.753   -10.038
8245.71     62.537    -8.849
8365.65     62.689    -9.034
8487.33     62.793   -10.390
8610.78     62.649   -13.751
8736.03     62.384   -16.089
8863.09     61.995   -17.688
8992.01     61.620   -18.727
9122.80     61.233   -19.339
9255.50     60.820   -18.350
9390.12     60.678   -15.798
9526.70     61.021   -14.748
9665.27     61.207   -19.151
9805.86     60.548   -24.139
9948.49     59.186   -22.937
10093.2     58.571   -15.288
10240.0     59.125    -8.407
10388.9     60.186   -10.240
10540.1     60.258   -16.625
10693.4     59.403   -18.841
10848.9     59.039   -15.948
11006.7     59.402   -13.965
11166.8     59.719   -16.864
11329.2     59.115   -21.461
11494.0     58.026   -19.443
11661.2     57.802   -14.763
11830.8     58.166   -12.539
12002.9     58.839   -13.548
12177.5     59.136   -21.709
12354.6     58.243   -32.951
12534.3     56.286   -35.264
12716.6     55.016   -31.908
12901.6     54.580   -29.785
13089.2     53.613   -28.981
13279.6     52.164   -23.596
13472.8     52.373   -12.683
13668.8     53.357   -13.924
13867.6     52.563   -18.421
14069.3     51.577   -15.285
14273.9     51.746   -10.585
14481.5     52.195   -12.258
14692.2     51.862   -14.408
14905.9     51.800   -14.177
15122.7     51.761   -14.455
15342.7     51.599   -15.897
15565.8     50.915   -16.938
15792.2     50.447   -16.424
16021.9     50.021   -19.968
16255.0     49.868   -25.219
16491.4     49.346   -29.114
16731.3     48.282   -32.522
16974.7     47.441   -33.934
17221.6     45.110   -31.485
17472.1     43.171   -13.930
17726.2     42.573    -1.481
17984.0     42.388    20.028
18245.6     43.681    27.665
18511.0     44.155    21.162
18780.2     44.657    16.128
19053.4     45.180     4.866
19330.5     43.860    -1.023
19611.7     43.057    -3.025
19897.0     41.720   -10.015
20186.4     41.410    -9.439
20480.0     41.086    -8.962
20777.9     40.748    -8.548
21080.1     40.400    -8.173
21386.7     40.041    -7.821
21697.8     39.675    -7.481
22013.4     39.303    -7.147
22333.6     38.925    -6.814
22658.4     38.543    -6.481
22988.0     38.158    -6.146
23322.4     37.770    -5.808
23661.6     37.379    -5.466
24005.8     36.987    -5.120
24355.0     36.593    -4.771
24709.2     36.197    -4.418
25068.6     35.800    -4.061
25433.2     35.402    -3.702
25803.2     35.003    -3.341
26178.5     34.603    -2.976
26559.3     34.203    -2.608
26945.6     33.802    -2.238
27337.5     33.400    -1.866
27735.2     32.998    -1.492
28138.6     32.596    -1.116
28547.9     32.194    -0.738
28963.1     31.790    -0.358
29384.4     31.387     0.022
29811.8     30.983     0.405
30245.4     30.579     0.788
30685.3     30.176     1.173
31131.7     29.771     1.559
31584.5     29.366     1.945
32043.9     28.962     2.333
32510.0     28.557     2.722
32982.8     28.152     3.111
33462.6     27.747     3.502
33949.3     27.342     3.893
34443.1     26.937     4.284
34944.1     26.532     4.677
35452.4     26.126     5.070
35968.0     25.721     5.463
36491.2     25.315     5.858
37022.0     24.910     6.253
37560.5     24.505     6.648
38106.8     24.098     7.043
38661.1     23.692     7.439
39223.4     23.287     7.836
39793.9     22.881     8.232
