Freq[Hz]     dBSPL  Phase[Deg]
5.00000     21.224   -35.629
5.07273     21.494   -49.634
5.14651     21.764   -63.640
5.22137     22.034   -77.644
5.29732     22.332   -92.073
5.37437     22.648  -106.762
5.45254     22.963  -121.451
5.53185     23.259  -136.412
5.61231     23.525  -151.785
5.69394     23.792  -167.158
5.77676     24.073   177.251
5.86079     24.386   161.196
5.94604     24.700   145.142
6.03252     25.005   128.830
6.12027     25.297   112.092
6.20929     25.590    95.354
6.29961     25.869    78.242
6.39124     26.137    60.820
6.48420     26.406    43.398
6.57851     26.684    25.407
6.67420     26.964     7.302
6.77128     27.247   -10.952
6.86977     27.538   -29.741
6.96969     27.830   -48.529
7.07107     28.130   -67.796
7.17392     28.433   -87.268
7.27827     28.728  -106.923
7.38413     29.000  -127.080
7.49154     29.272  -147.234
7.60050     29.594  -168.021
7.71105     29.920   171.139
7.82321     30.195   149.855
7.93701     30.442   128.335
8.05245     30.714   106.503
8.16958     31.016    84.299
8.28841     31.322    61.874
8.40896     31.635    38.982
8.53128     31.937    15.922
8.65537     32.210    -7.651
8.78126     32.485   -31.393
8.90899     32.766   -55.648
9.03857     33.050   -80.106
9.17004     33.341  -105.045
9.30342     33.634  -130.257
9.43874     33.933  -155.880
9.57603     34.237   178.120
9.71532     34.544   151.817
9.85663     34.815   124.996
10.0000     35.075    98.007
10.1455     35.458    69.834
10.2930     35.462    45.045
10.4427     34.537    28.597
10.5946     33.179    12.010
10.7487     31.556    -4.665
10.9051     29.213   -26.025
11.0637     26.302   -54.063
11.2246     22.549   -92.057
11.3879     22.273  -136.981
11.5535     23.768   175.970
11.7216     27.634   127.227
11.8921     30.602   104.266
12.0650     33.070    87.349
12.2405     35.005    71.863
12.4186     36.302    58.195
12.5992     37.217    45.485
12.7825     37.758    33.797
12.9684     37.881    23.515
13.1570     37.565    14.528
13.3484     36.919     6.879
13.5426     35.902     1.726
13.7395     34.381     1.871
13.9394     33.061     6.100
14.1421     32.307    15.869
14.3478     32.339    26.229
14.5565     33.071    33.132
14.7683     34.038    35.309
14.9831     34.785    32.779
15.2010     34.578    26.291
15.4221     33.872    17.987
15.6464     32.275     5.666
15.8740     29.648   -12.028
16.1049     27.283   -41.731
16.3392     26.855   -84.255
16.5768     28.683  -123.803
16.8179     31.730  -146.475
17.0626     34.339  -156.783
17.3107     36.276  -162.316
17.5625     37.736  -165.204
17.8180     38.779  -165.816
18.0771     39.655  -165.084
18.3401     40.435  -163.134
18.6068     41.156  -159.830
18.8775     41.938  -155.777
19.1521     42.913  -151.702
19.4306     44.146  -148.327
19.7133     45.305  -146.581
20.0000     46.525  -146.487
20.2909     47.531  -147.710
20.5860     48.419  -149.759
20.8855     49.074  -152.200
21.1893     49.688  -154.636
21.4975     50.125  -156.838
21.8102     50.496  -158.851
22.1274     51.012  -160.922
22.4492     51.598  -163.265
22.7758     52.251  -166.065
23.1071     52.914  -169.338
23.4432     53.584  -172.826
23.7841     54.159  -176.246
24.1301     54.760  -179.318
24.4811     55.376   177.993
24.8372     56.074   175.740
25.1984     56.798   173.810
25.5649     57.348   172.216
25.9368     57.998   171.007
26.3141     58.516   170.265
26.6968     59.114   169.999
27.0851     59.640   170.073
27.4791     60.262   170.222
27.8788     60.805   170.139
28.2843     61.554   169.754
28.6957     62.098   169.077
29.1131     62.635   168.233
29.5365     63.177   167.281
29.9661     63.655   166.185
30.4020     64.182   164.838
30.8442     64.712   163.179
31.2929     65.205   161.292
31.7480     65.697   159.302
32.2098     66.255   157.314
32.6783     66.790   155.355
33.1536     67.345   153.385
33.6359     68.017   151.378
34.1251     68.649   149.352
34.6215     69.291   147.360
35.1250     69.849   145.444
35.6359     70.486   143.635
36.1543     71.084   141.908
36.6802     71.543   140.192
37.2137     72.217   138.374
37.7550     72.703   136.373
38.3041     73.104   134.182
38.8613     73.633   131.954
39.4265     74.074   129.795
40.0000     74.476   127.690
40.5818     74.965   125.522
41.1721     75.406   123.184
41.7710     76.110   120.673
42.3785     76.602   117.996
42.9949     77.193   115.201
43.6203     77.784   112.328
44.2548     78.387   109.433
44.8985     78.918   106.526
45.5515     79.340   103.570
46.2141     79.790   100.565
46.8863     80.350    97.524
47.5683     80.754    94.357
48.2602     81.281    90.913
48.9621     81.584    87.179
49.6743     82.033    83.318
50.3968     82.417    79.438
51.1299     82.903    75.550
51.8736     83.283    71.642
52.6281     83.731    67.701
53.3936     84.076    63.732
54.1702     84.375    59.747
54.9581     84.782    55.624
55.7575     84.928    51.257
56.5685     85.274    46.862
57.3914     85.356    42.584
58.2261     85.589    38.264
59.0730     85.699    33.957
59.9323     85.872    29.877
60.8040     85.999    25.892
61.6884     86.129    21.985
62.5857     86.199    18.329
63.4960     86.299    14.755
64.4196     86.399    11.135
65.3566     86.352     7.531
66.3073     86.493     3.891
67.2717     86.429     0.303
68.2502     86.399    -3.159
69.2429     86.499    -6.498
70.2501     86.599    -9.686
71.2719     86.599   -12.728
72.3086     86.599   -15.572
73.3603     86.699   -18.386
74.4274     86.699   -21.292
75.5099     86.699   -24.191
76.6083     86.599   -27.042
77.7226     86.522   -29.858
78.8531     86.531   -32.486
80.0000     86.454   -34.873
81.1636     86.499   -37.120
82.3442     86.499   -39.230
83.5419     86.399   -41.234
84.7570     86.499   -43.211
85.9899     86.614   -45.149
87.2406     86.622   -47.258
88.5096     86.730   -49.358
89.7970     86.799   -51.531
91.1031     86.899   -53.870
92.4282     86.999   -56.359
93.7726     86.919   -58.700
95.1366     86.999   -61.376
96.5204     87.099   -64.161
97.9243     87.016   -66.962
99.3486     86.866   -69.509
100.794     86.849   -71.283
102.260     86.899   -72.484
103.747     86.899   -73.857
105.256     86.999   -75.659
106.787     87.099   -77.799
108.340     87.099   -79.843
109.916     87.199   -81.945
111.515     87.270   -84.052
113.137     87.399   -86.142
114.783     87.499   -88.220
116.452     87.398   -90.293
118.146     87.547   -92.373
119.865     87.480   -94.247
121.608     87.563   -96.342
123.377     87.699   -98.572
125.171     87.699  -100.882
126.992     87.713  -103.203
128.839     87.799  -105.607
130.713     87.856  -108.106
132.615     87.961  -110.729
134.543     88.016  -113.668
136.500     88.008  -116.670
138.486     88.059  -119.487
140.500     87.927  -122.629
142.544     87.745  -125.386
144.617     87.599  -127.437
146.721     87.482  -129.431
148.855     87.349  -131.715
151.020     87.199  -133.853
153.217     87.032  -135.776
155.445     86.882  -137.617
157.706     86.732  -139.465
160.000     86.634  -141.374
162.327     86.449  -143.291
164.688     86.277  -144.780
167.084     86.056  -145.750
169.514     85.942  -146.507
171.980     85.813  -147.529
174.481     85.699  -148.603
177.019     85.548  -149.564
179.594     85.470  -150.061
182.206     85.371  -150.433
184.856     85.442  -151.199
187.545     85.476  -152.163
190.273     85.499  -153.175
193.041     85.607  -154.321
195.849     85.636  -156.163
198.697     85.572  -158.112
201.587     85.528  -159.144
204.520     85.534  -160.540
207.494     85.540  -162.206
210.512     85.566  -164.241
213.574     85.561  -166.442
216.681     85.480  -168.292
219.833     85.426  -169.974
223.030     85.317  -171.664
226.274     85.198  -173.190
229.565     85.100  -174.794
232.905     84.987  -176.620
236.292     84.872  -178.504
239.729     84.699   179.821
243.216     84.540   178.285
246.754     84.292   177.216
250.343     84.069   176.458
253.984     83.839   175.793
257.678     83.658   175.230
261.426     83.454   174.872
265.229     83.357   174.701
269.087     83.240   174.650
273.001     83.199   174.572
276.972     83.117   174.350
281.000     83.098   173.971
285.088     83.078   173.419
289.234     83.079   172.693
293.441     83.082   171.767
297.709     83.088   170.656
302.040     83.032   169.389
306.433     82.949   167.963
310.890     82.838   166.438
315.412     82.666   164.934
320.000     82.537   163.523
324.655     82.349   162.265
329.377     82.114   161.216
334.168     81.835   160.354
339.028     81.561   159.782
343.959     81.313   159.488
348.962     81.130   159.409
354.038     80.963   159.462
359.188     80.828   159.543
364.412     80.686   159.534
369.713     80.599   159.336
375.090     80.512   158.887
380.546     80.499   158.155
386.081     80.419   157.189
391.697     80.268   156.028
397.394     80.080   154.777
403.175     79.839   153.636
409.039     79.558   152.662
414.989     79.299   151.968
421.025     79.005   151.652
427.149     78.699   151.685
433.362     78.446   151.965
439.665     78.249   152.335
446.060     78.199   152.546
452.548     78.099   152.389
459.131     78.038   151.724
465.809     77.941   150.487
472.584     77.788   148.789
479.458     77.599   146.791
486.432     77.288   144.654
493.507     76.819   142.634
500.686     76.234   141.028
507.968     75.559   140.156
515.357     74.854   140.205
522.853     74.204   141.252
530.458     73.575   143.166
538.174     73.037   145.498
546.002     72.675   147.699
553.943     72.422   149.340
562.001     72.199   150.135
570.175     71.916   150.038
578.469     71.490   149.240
586.883     70.886   148.145
595.419     70.029   147.336
604.080     68.882   147.695
612.866     67.466   150.658
621.780     65.955   158.115
630.824     64.919   170.540
640.000     64.987  -175.955
649.309     65.899  -166.646
658.753     66.949  -163.137
668.335     67.651  -164.095
678.056     67.780  -167.364
687.919     67.313  -170.934
697.925     66.151  -172.435
708.077     64.474  -168.433
718.376     62.935  -155.846
728.825     62.765  -137.963
739.426     64.051  -124.449
750.181     65.519  -118.689
761.093     66.436  -117.082
772.163     66.826  -115.754
783.394     67.002  -112.412
794.789     67.252  -106.616
806.349     67.841  -100.056
818.078     68.729   -94.425
829.977     69.752   -90.195
842.050     70.843   -87.016
854.298     72.047   -84.849
866.724     73.346   -84.330
879.330     74.665   -86.030
892.120     75.836   -89.763
905.097     76.721   -94.721
918.262     77.349  -100.711
931.618     77.704  -107.488
945.169     77.756  -114.690
958.917     77.449  -121.899
972.864     76.788  -128.395
987.015     75.763  -132.933
1001.37     74.539  -134.089
1015.94     73.539  -131.792
1030.71     73.087  -128.969
1045.71     72.885  -128.766
1060.92     72.323  -130.777
1076.35     71.149  -130.740
1092.00     69.859  -123.915
1107.89     69.706  -112.206
1124.00     70.829  -104.892
1140.35     72.019  -105.064
1156.94     72.732  -109.369
1173.77     72.988  -115.100
1190.84     72.773  -121.131
1208.16     72.065  -125.595
1225.73     71.089  -125.182
1243.56     70.870  -120.404
1261.65     71.761  -119.285
1280.00     72.509  -125.684
1298.62     72.366  -134.650
1317.51     71.591  -139.956
1336.67     71.182  -141.449
1356.11     71.354  -145.920
1375.84     71.095  -155.482
1395.85     69.939  -164.685
1416.15     68.351  -168.997
1436.75     66.788  -170.014
1457.65     64.739  -165.611
1478.85     63.642  -147.525
1500.36     65.723  -134.234
1522.19     67.517  -138.998
1544.33     67.714  -146.657
1566.79     67.710  -148.119
1589.58     68.548  -151.074
1612.70     69.145  -162.171
1636.16     68.650  -177.463
1659.95     67.058   166.338
1684.10     64.178   144.116
1708.60     59.584    90.392
1733.45     60.649    -3.886
1758.66     66.329   -63.183
1784.24     69.698   -92.600
1810.19     71.469  -114.791
1836.52     72.139  -135.411
1863.24     71.692  -153.944
1890.34     70.372  -166.007
1917.83     69.086  -172.557
1945.73     67.546  -176.365
1974.03     66.309  -168.520
2002.74     67.564  -164.208
2031.87     67.935  -174.197
2061.43     66.983  -178.509
2091.41     66.700   177.950
2121.83     65.330   171.044
2152.69     62.978   174.707
2184.01     61.440  -164.638
2215.77     65.015  -139.000
2248.00     67.898  -149.931
2280.70     67.217  -159.153
2313.87     67.934  -148.822
2347.53     70.701  -150.497
2381.68     72.103  -166.083
2416.32     71.660   179.695
2451.46     70.888   175.468
2487.12     70.693   172.226
2523.30     70.041   171.990
2560.00     70.467  -179.256
2597.24     73.076  -177.905
2635.01     74.618   168.741
2673.34     74.830   157.563
2712.23     75.251   150.864
2751.68     75.881   140.575
2791.70     75.380   130.509
2832.31     75.265   128.211
2873.50     75.788   123.359
2915.30     76.489   116.960
2957.70     77.087   108.331
3000.72     77.649    96.715
3044.37     77.150    85.702
3088.65     77.164    80.689
3133.58     77.729    71.896
3179.16     77.814    60.252
3225.40     77.520    51.362
3272.31     77.586    42.865
3319.91     77.557    33.419
3368.20     77.597    24.699
3417.19     77.548    15.176
3466.89     77.396     4.904
3517.32     77.090    -0.961
3568.48     77.254    -7.836
3620.39     77.943   -13.288
3673.05     79.024   -24.772
3726.47     79.505   -41.284
3780.67     79.299   -55.787
3835.67     78.923   -70.417
3891.46     78.274   -80.177
3948.06     78.167   -89.080
4005.49     78.393  -100.204
4063.75     78.659  -115.286
4122.86     77.565  -131.836
4182.82     76.162  -139.153
4243.66     75.845  -141.659
4305.39     76.820  -150.076
4368.01     76.545  -167.515
4431.55     75.169  -176.930
4496.01     74.738  -179.092
4561.40     75.697   176.403
4627.75     76.202   160.737
4695.06     75.571   148.391
4763.35     75.301   139.270
4832.64     75.321   129.944
4902.93     75.361   117.983
4974.24     74.777   106.134
5046.60     74.326    99.381
5120.00     74.715    91.370
5194.47     74.992    77.063
5270.03     74.346    63.262
5346.68     73.801    53.154
5424.45     73.524    42.948
5503.35     73.403    29.420
5583.40     72.542    15.521
5664.61     71.530     7.396
5747.01     71.545    -1.423
5830.60     71.247   -13.725
5915.41     70.946   -26.238
6001.45     70.632   -39.498
6088.74     69.762   -51.394
6177.30     69.572   -60.228
6267.15     69.828   -73.801
6358.31     69.518   -89.515
6450.80     69.187  -103.418
6544.62     68.762  -118.317
6639.82     67.810  -131.558
6736.40     67.376  -140.268
6834.38     67.212  -151.160
6933.79     67.594  -160.600
7034.64     68.177  -177.384
7136.96     67.769   164.224
7240.77     67.073   149.057
7346.09     65.949   135.648
7452.94     65.274   127.724
7561.35     65.193   116.084
7671.33     64.780   103.184
7782.91     64.353    93.897
7896.12     64.645    82.167
8010.97     64.307    67.278
8127.49     64.492    56.578
8245.71     65.063    36.181
8365.65     64.123    16.171
8487.33     63.150     1.794
8610.78     62.556   -11.067
8736.03     62.541   -22.925
8863.09     62.847   -39.239
8992.01     62.809   -57.225
9122.80     62.448   -73.791
9255.50     62.530   -91.520
9390.12     62.137  -109.885
9526.70     61.734  -129.851
9665.27     60.595  -146.004
9805.86     60.013  -157.176
9948.49     60.151  -170.222
10093.2     60.630   171.315
10240.0     60.368   146.707
10388.9     58.356   121.042
10540.1     55.671   123.963
10693.4     56.627   120.689
10848.9     57.228   104.301
11006.7     57.675    81.807
11166.8     57.755    61.347
11329.2     57.252    40.627
11494.0     57.419    25.303
11661.2     57.968     0.902
11830.8     57.972   -25.051
12002.9     57.674   -51.120
12177.5     57.023   -74.430
12354.6     56.309   -98.153
12534.3     56.098  -120.000
12716.6     56.310  -143.226
12901.6     57.190  -169.480
13089.2     57.042   158.129
13279.6     56.155   129.479
13472.8     54.949   108.050
13668.8     54.471    81.497
13867.6     52.720    48.620
14069.3     48.407    37.753
14273.9     46.132    36.754
14481.5     46.366    37.258
14692.2     48.394    18.107
14905.9     48.946   -13.443
15122.7     49.260   -39.823
15342.7     49.561   -70.240
15565.8     49.347  -107.638
15792.2     48.809  -138.552
16021.9     49.043  -165.679
16255.0     48.421   163.608
16491.4     48.585   135.367
16731.3     48.743   110.277
16974.7     48.476    84.397
17221.6     48.248    61.481
17472.1     48.899    31.788
17726.2     49.089    -1.036
17984.0     49.469   -33.043
18245.6     49.638   -68.390
18511.0     50.156  -103.942
18780.2     50.503  -141.469
19053.4     50.644   177.195
19330.5     49.314   131.315
19611.7     46.476    94.116
19897.0     45.907    64.631
20186.4     45.632    39.890
20480.0     45.357    15.149
20777.9     45.081    -9.589
21080.1     44.806   -34.331
21386.7     44.531   -59.071
21697.8     44.255   -83.809
22013.4     43.980  -108.548
22333.6     43.705  -133.287
22658.4     43.429  -158.031
22988.0     43.154   177.232
23322.4     42.879   152.496
23661.6     42.604   127.753
24005.8     42.328   103.017
24355.0     42.053    78.279
24709.2     41.778    53.536
25068.6     41.502    28.797
25433.2     41.227     4.055
25803.2     40.952   -20.680
26178.5     40.677   -45.420
26559.3     40.401   -70.158
26945.6     40.126   -94.898
27337.5     39.851  -119.640
27735.2     39.575  -144.375
28138.6     39.300  -169.115
28547.9     39.025   166.146
28963.1     38.749   141.404
29384.4     38.474   116.667
29811.8     38.199    91.926
30245.4     37.924    67.186
30685.3     37.648    42.444
31131.7     37.373    17.709
31584.5     37.098    -7.031
32043.9     36.822   -31.771
32510.0     36.547   -56.510
32982.8     36.272   -81.253
33462.6     35.996  -105.989
33949.3     35.721  -130.730
34443.1     35.446  -155.470
34944.1     35.171   179.792
35452.4     34.895   155.054
35968.0     34.620   130.311
36491.2     34.345   105.573
37022.0     34.069    80.835
37560.5     33.794    56.096
38106.8     33.519    31.355
38661.1     33.243     6.616
39223.4     32.968   -18.124
39793.9     32.693   -42.864
