Freq[Hz]     dBSPL  Phase[Deg]
5.00000     16.199   -39.520
5.07273     16.495   -53.583
5.14651     16.791   -67.648
5.22137     17.087   -81.712
5.29732     17.411   -96.201
5.37437     17.753  -110.952
5.45254     18.094  -125.703
5.53185     18.416  -140.728
5.61231     18.708  -156.165
5.69394     19.001  -171.603
5.77676     19.308   172.739
5.86079     19.647   156.617
5.94604     19.987   140.495
6.03252     20.318   124.113
6.12027     20.637   107.305
6.20929     20.955    90.496
6.29961     21.260    73.312
6.39124     21.555    55.816
6.48420     21.849    38.320
6.57851     22.154    20.254
6.67420     22.460     2.072
6.77128     22.768   -16.259
6.86977     23.086   -35.128
6.96969     23.404   -53.996
7.07107     23.729   -73.344
7.17392     24.058   -92.899
7.27827     24.379  -112.637
7.38413     24.678  -132.878
7.49154     24.976  -153.118
7.60050     25.324  -173.993
7.71105     25.676   165.079
7.82321     25.977   143.705
7.93701     26.250   122.094
8.05245     26.548   100.170
8.16958     26.876    77.871
8.28841     27.208    55.351
8.40896     27.547    32.364
8.53128     27.875     9.205
8.65537     28.174   -14.467
8.78126     28.475   -38.309
8.90899     28.783   -62.667
9.03857     29.093   -87.229
9.17004     29.409  -112.273
9.30342     29.729  -137.591
9.43874     30.053  -163.323
9.57603     30.383   170.567
9.71532     30.717   144.152
9.85663     31.014   117.218
10.0000     31.299    90.115
10.1455     31.708    61.825
10.2930     31.738    36.918
10.4427     30.839    20.350
10.5946     29.508     3.642
10.7487     27.911   -13.157
10.9051     25.594   -34.642
11.0637     22.709   -62.806
11.2246     18.982  -100.929
11.3879     18.732  -145.984
11.5535     20.252   166.834
11.7216     24.145   117.957
11.8921     27.139    94.859
12.0650     29.633    77.804
12.2405     31.594    62.177
12.4186     32.917    48.366
12.5992     33.858    35.512
12.7825     34.425    23.678
12.9684     34.574    13.247
13.1570     34.284     4.109
13.3484     33.664    -3.694
13.5426     32.673    -9.002
13.7395     31.178    -9.015
13.9394     29.884    -4.946
14.1421     29.157     4.661
14.3478     29.214    14.856
14.5565     29.972    21.592
14.7683     30.965    23.600
14.9831     31.739    20.898
15.2010     31.557    14.235
15.4221     30.878     5.754
15.6464     29.306    -6.746
15.8740     26.706   -24.622
16.1049     24.367   -54.510
16.3392     23.965   -97.222
16.5768     25.818  -136.960
16.8179     28.891  -159.825
17.0626     31.526  -170.329
17.3107     33.490  -176.060
17.5625     34.976  -179.150
17.8180     36.045  -179.966
18.0771     36.947  -179.441
18.3401     37.752  -177.702
18.6068     38.499  -174.612
18.8775     39.308  -170.775
19.1521     40.309  -166.919
19.4306     41.568  -163.768
19.7133     42.753  -162.248
20.0000     43.999  -162.384
20.2909     45.031  -163.840
20.5860     45.941  -166.107
20.8855     46.671  -168.783
21.1893     47.202  -171.456
21.4975     47.695  -173.895
21.8102     48.096  -176.147
22.1274     48.654  -178.456
22.4492     49.298   178.963
22.7758     49.951   175.925
23.1071     50.614   172.414
23.4432     51.286   168.689
23.7841     51.954   165.033
24.1301     52.560   161.725
24.4811     53.261   158.804
24.8372     53.974   156.319
25.1984     54.617   154.159
25.5649     55.229   152.338
25.9368     55.898   150.904
26.3141     56.502   149.940
26.6968     57.114   149.454
27.0851     57.736   149.313
27.4791     58.366   149.249
27.8788     59.005   148.959
28.2843     59.754   148.370
28.6957     60.334   147.493
29.1131     60.935   146.454
29.5365     61.543   145.313
29.9661     61.972   144.031
30.4020     62.582   142.504
30.8442     63.112   140.672
31.2929     63.651   138.618
31.7480     64.197   136.466
32.2098     64.851   134.323
32.6783     65.413   132.216
33.1536     66.045   130.104
33.6359     66.717   127.962
34.1251     67.449   125.809
34.6215     68.145   123.697
35.1250     68.749   121.668
35.6359     69.417   119.755
36.1543     70.084   117.930
36.6802     70.643   116.125
37.2137     71.256   114.226
37.7550     71.803   112.152
38.3041     72.264   109.897
38.8613     72.833   107.612
39.4265     73.340   105.404
40.0000     73.799   103.260
40.5818     74.365   101.060
41.1721     74.906    98.699
41.7710     75.516    96.174
42.3785     76.102    93.491
42.9949     76.793    90.699
43.6203     77.395    87.837
44.2548     78.003    84.961
44.8985     78.618    82.082
45.5515     79.140    79.163
46.2141     79.670    76.202
46.8863     80.154    73.214
47.5683     80.654    70.108
48.2602     81.203    66.732
48.9621     81.584    63.076
49.6743     82.069    59.300
50.3968     82.517    55.513
51.1299     83.003    51.726
51.8736     83.448    47.926
52.6281     83.902    44.101
53.3936     84.356    40.257
54.1702     84.667    36.402
54.9581     85.082    32.418
55.7575     85.302    28.198
56.5685     85.626    23.957
57.3914     85.756    19.839
58.2261     85.989    15.687
59.0730     86.199    11.555
59.9323     86.372     7.657
60.8040     86.499     3.861
61.6884     86.674     0.151
62.5857     86.799    -3.302
63.4960     86.899    -6.665
64.4196     86.999   -10.068
65.3566     86.999   -13.447
66.3073     87.099   -16.855
67.2717     87.099   -20.205
68.2502     87.099   -23.420
69.2429     87.199   -26.506
70.2501     87.299   -29.433
71.2719     87.299   -32.206
72.3086     87.299   -34.773
73.3603     87.399   -37.303
74.4274     87.399   -39.917
75.5099     87.399   -42.515
76.6083     87.299   -45.057
77.7226     87.299   -47.555
78.8531     87.299   -49.855
80.0000     87.199   -51.904
81.1636     87.199   -53.804
82.3442     87.199   -55.556
83.5419     87.099   -57.191
84.7570     87.199   -58.787
85.9899     87.295   -60.333
87.2406     87.299   -62.036
88.5096     87.399   -63.717
89.7970     87.399   -65.456
91.1031     87.499   -67.347
92.4282     87.499   -69.370
93.7726     87.519   -71.229
95.1366     87.599   -73.405
96.5204     87.599   -75.669
97.9243     87.516   -77.929
99.3486     87.366   -79.913
100.794     87.249   -81.101
102.260     87.199   -81.690
103.747     87.199   -82.425
105.256     87.299   -83.559
106.787     87.299   -85.000
108.340     87.299   -86.312
109.916     87.399   -87.649
111.515     87.470   -88.952
113.137     87.499   -90.200
114.783     87.499   -91.394
116.452     87.399   -92.539
118.146     87.485   -93.646
119.865     87.449   -94.500
121.608     87.556   -95.525
123.377     87.599   -96.636
125.171     87.599   -97.776
126.992     87.613   -98.879
128.839     87.699  -100.017
130.713     87.756  -101.205
132.615     87.861  -102.477
134.543     87.899  -104.002
136.500     87.928  -105.554
138.486     87.999  -107.060
140.500     87.977  -108.778
142.544     87.862  -110.020
144.617     87.799  -110.732
146.721     87.799  -111.451
148.855     87.799  -112.431
151.020     87.799  -113.370
153.217     87.799  -114.211
155.445     87.799  -115.094
157.706     87.799  -116.112
160.000     87.877  -117.267
162.327     87.899  -118.568
164.688     87.877  -119.606
167.084     87.799  -120.201
169.514     87.799  -120.660
171.980     87.799  -121.472
174.481     87.799  -122.406
177.019     87.763  -123.260
179.594     87.699  -123.658
182.206     87.708  -123.919
184.856     87.799  -124.549
187.545     87.890  -125.346
190.273     87.912  -126.124
193.041     88.021  -126.971
195.849     88.074  -128.439
198.697     87.972  -129.905
201.587     87.928  -130.364
204.520     87.934  -131.098
207.494     87.940  -132.016
210.512     87.944  -133.165
213.574     87.936  -134.399
216.681     87.880  -135.268
219.833     87.849  -135.847
223.030     87.773  -136.316
226.274     87.687  -136.585
229.565     87.667  -136.919
232.905     87.643  -137.483
236.292     87.616  -138.141
239.729     87.599  -138.589
243.216     87.563  -138.994
246.754     87.492  -139.055
250.343     87.399  -138.905
253.984     87.399  -138.829
257.678     87.328  -138.817
261.426     87.299  -138.731
265.229     87.377  -138.584
269.087     87.367  -138.398
273.001     87.399  -138.264
276.972     87.399  -138.247
281.000     87.471  -138.297
285.088     87.478  -138.375
289.234     87.479  -138.475
293.441     87.515  -138.610
297.709     87.588  -138.780
302.040     87.599  -138.975
306.433     87.599  -139.182
310.890     87.569  -139.378
315.412     87.499  -139.548
320.000     87.553  -139.682
324.655     87.574  -139.775
329.377     87.499  -139.824
334.168     87.499  -139.831
339.028     87.430  -139.796
343.959     87.399  -139.722
348.962     87.399  -139.616
354.038     87.399  -139.481
359.188     87.399  -139.313
364.412     87.346  -139.109
369.713     87.299  -138.877
375.090     87.299  -138.616
380.546     87.299  -138.318
386.081     87.299  -137.993
391.697     87.299  -137.635
397.394     87.243  -137.252
403.175     87.199  -136.874
409.039     87.199  -136.484
414.989     87.199  -136.081
421.025     87.199  -135.671
427.149     87.199  -135.238
433.362     87.170  -134.760
439.665     87.099  -134.173
446.060     87.099  -133.474
452.548     87.099  -132.641
459.131     87.099  -131.638
465.809     87.015  -130.474
472.584     87.088  -129.222
479.458     87.152  -127.950
486.432     87.273  -126.702
493.507     87.384  -125.557
500.686     87.534  -124.574
507.968     87.664  -123.800
515.357     87.829  -123.214
522.853     88.013  -122.763
530.458     88.132  -122.399
538.174     88.199  -122.084
546.002     88.294  -121.787
553.943     88.399  -121.494
562.001     88.508  -121.218
570.175     88.621  -120.987
578.469     88.734  -120.826
586.883     88.838  -120.745
595.419     88.929  -120.730
604.080     89.007  -120.752
612.866     89.099  -120.778
621.780     89.159  -120.786
630.824     89.199  -120.771
640.000     89.299  -120.748
649.309     89.327  -120.739
658.753     89.399  -120.757
668.335     89.432  -120.796
678.056     89.499  -120.831
687.919     89.499  -120.834
697.925     89.562  -120.798
708.077     89.628  -120.751
718.376     89.735  -120.752
728.825     89.799  -120.865
739.426     89.871  -121.131
750.181     89.962  -121.537
761.093     89.999  -122.020
772.163     89.999  -122.482
783.394     89.954  -122.856
794.789     89.883  -123.109
806.349     89.783  -123.249
818.078     89.672  -123.328
829.977     89.549  -123.389
842.050     89.393  -123.421
854.298     89.193  -123.332
866.724     88.940  -122.943
879.330     88.648  -121.983
892.120     88.339  -120.016
905.097     88.046  -116.676
918.262     87.899  -112.651
931.618     87.910  -108.651
945.169     88.048  -105.077
958.917     88.260  -102.059
972.864     88.517   -99.569
987.015     88.837   -97.684
1001.37     89.209   -96.659
1015.94     89.561   -96.748
1030.71     89.816   -97.800
1045.71     89.899   -99.314
1060.92     89.892  -100.657
1076.35     89.799  -101.455
1092.00     89.715  -101.883
1107.89     89.699  -102.335
1124.00     89.699  -102.935
1140.35     89.699  -103.520
1156.94     89.747  -104.142
1173.77     89.864  -105.230
1190.84     89.993  -107.153
1208.16     89.999  -109.689
1225.73     89.915  -112.236
1243.56     89.787  -114.398
1261.65     89.699  -116.368
1280.00     89.699  -118.614
1298.62     89.699  -121.318
1317.51     89.699  -124.405
1336.67     89.661  -127.710
1356.11     89.561  -131.024
1375.84     89.455  -134.263
1395.85     89.399  -137.520
1416.15     89.345  -140.665
1436.75     89.299  -143.118
1457.65     89.342  -145.265
1478.85     89.406  -147.710
1500.36     89.499  -150.715
1522.19     89.477  -153.997
1544.33     89.399  -157.167
1566.79     89.314  -160.263
1589.58     89.185  -163.279
1612.70     89.037  -165.867
1636.16     88.999  -168.068
1659.95     88.999  -170.396
1684.10     88.920  -173.043
1708.60     88.859  -175.812
1733.45     88.753  -178.556
1758.66     88.626   178.871
1784.24     88.499   176.681
1810.19     88.419   174.452
1836.52     88.311   171.685
1863.24     88.141   169.140
1890.34     88.006   167.347
1917.83     87.999   165.239
1945.73     87.896   162.795
1974.03     87.745   161.297
2002.74     87.762   160.328
2031.87     87.919   158.769
2061.43     88.080   156.164
2091.41     88.088   152.973
2121.83     87.957   150.893
2152.69     88.036   149.562
2184.01     88.224   147.529
2215.77     88.421   144.899
2248.00     88.573   141.712
2280.70     88.599   138.279
2313.87     88.553   135.499
2347.53     88.588   133.505
2381.68     88.747   130.979
2416.32     88.848   127.922
2451.46     88.976   124.948
2487.12     89.129   121.073
2523.30     89.012   116.938
2560.00     88.851   114.876
2597.24     89.044   112.331
2635.01     89.106   108.617
2673.34     89.199   105.025
2712.23     89.174   100.848
2751.68     88.943    97.329
2791.70     88.856    96.008
2832.31     89.078    93.184
2873.50     89.174    89.132
2915.30     89.104    84.634
2957.70     88.800    81.124
3000.72     88.570    79.074
3044.37     88.487    77.182
3088.65     88.325    74.755
3133.58     88.264    73.787
3179.16     88.401    72.116
3225.40     88.523    70.046
3272.31     88.719    67.352
3319.91     88.799    63.659
3368.20     88.799    60.844
3417.19     88.874    57.800
3466.89     88.860    54.833
3517.32     88.900    51.429
3568.48     88.667    49.104
3620.39     88.848    47.792
3673.05     89.020    44.534
3726.47     89.149    41.118
3780.67     89.099    37.733
3835.67     89.234    34.611
3891.46     89.232    30.498
3948.06     89.182    26.301
4005.49     88.902    22.184
4063.75     88.693    19.986
4122.86     88.511    16.791
4182.82     88.239    14.027
4243.66     87.828    12.311
4305.39     87.699    12.343
4368.01     87.738    11.829
4431.55     87.782     9.589
4496.01     87.762     8.144
4561.40     87.814     6.202
4627.75     87.854     3.976
4695.06     87.799     2.720
4763.35     87.833     0.963
4832.64     87.908    -0.096
4902.93     88.114    -1.439
4974.24     88.372    -3.135
5046.60     88.809    -5.722
5120.00     89.098   -10.731
5194.47     89.099   -15.313
5270.03     89.061   -19.414
5346.68     88.886   -23.778
5424.45     88.621   -26.925
5503.35     88.441   -29.593
5583.40     88.229   -32.348
5664.61     87.964   -33.868
5747.01     88.017   -34.708
5830.60     88.087   -37.805
5915.41     87.926   -40.535
6001.45     87.860   -43.667
6088.74     87.548   -45.679
6177.30     87.501   -46.157
6267.15     87.565   -47.907
6358.31     87.632   -49.443
6450.80     87.769   -51.386
6544.62     87.799   -53.904
6639.82     87.993   -55.552
6736.40     88.194   -58.403
6834.38     88.429   -60.924
6933.79     88.625   -65.200
7034.64     88.764   -69.150
7136.96     88.799   -73.718
7240.77     88.705   -77.640
7346.09     88.599   -81.742
7452.94     88.436   -84.794
7561.35     88.352   -88.120
7671.33     88.200   -90.744
7782.91     88.145   -93.740
7896.12     87.933   -96.157
8010.97     87.827   -98.366
8127.49     87.771  -100.005
8245.71     87.914  -102.453
8365.65     88.013  -105.186
8487.33     88.099  -108.632
8610.78     88.047  -112.119
8736.03     87.937  -114.938
8863.09     87.926  -116.758
8992.01     88.120  -118.869
9122.80     88.353  -122.111
9255.50     88.499  -126.276
9390.12     88.499  -130.055
9526.70     88.455  -133.553
9665.27     88.482  -136.616
9805.86     88.527  -140.455
9948.49     88.537  -144.727
10093.2     88.323  -148.485
10240.0     88.108  -151.401
10388.9     87.999  -154.044
10540.1     87.968  -157.054
10693.4     87.883  -160.630
10848.9     87.686  -164.608
11006.7     87.314  -167.776
11166.8     86.963  -169.550
11329.2     86.722  -170.517
11494.0     86.685  -171.423
11661.2     86.722  -172.798
11830.8     86.800  -174.564
12002.9     86.907  -176.548
12177.5     87.061  -179.140
12354.6     87.123   177.363
12534.3     86.964   174.265
12716.6     86.800   172.909
12901.6     86.928   172.348
13089.2     87.249   170.530
13279.6     87.578   167.618
13472.8     88.025   164.362
13668.8     88.572   160.131
13867.6     89.050   154.158
14069.3     89.340   147.311
14273.9     89.533   140.958
14481.5     89.716   134.659
14692.2     89.862   127.452
14905.9     89.896   120.249
15122.7     89.892   113.748
15342.7     89.976   106.859
15565.8     89.993    99.014
15792.2     89.831    91.405
16021.9     89.633    84.531
16255.0     89.428    77.775
16491.4     89.186    71.378
16731.3     88.957    65.669
16974.7     88.774    59.607
17221.6     88.472    53.209
17472.1     88.043    48.275
17726.2     87.738    44.300
17984.0     87.498    40.088
18245.6     87.319    36.124
18511.0     87.299    31.840
18780.2     87.261    26.409
19053.4     87.125    20.662
19330.5     86.968    14.849
19611.7     86.802     8.878
19897.0     86.628     3.981
20186.4     86.628     3.981
20480.0     86.628     3.981
20777.9     86.628     3.981
21080.1     86.628     3.981
21386.7     86.628     3.981
21697.8     86.628     3.981
22013.4     86.628     3.981
22333.6     86.628     3.981
22658.4     86.628     3.981
22988.0     86.628     3.981
23322.4     86.628     3.981
23661.6     86.628     3.981
24005.8     86.628     3.981
24355.0     86.628     3.981
24709.2     86.628     3.981
25068.6     86.628     3.981
25433.2     86.628     3.981
25803.2     86.628     3.981
26178.5     86.628     3.981
26559.3     86.628     3.981
26945.6     86.628     3.981
27337.5     86.628     3.981
27735.2     86.628     3.981
28138.6     86.628     3.981
28547.9     86.628     3.981
28963.1     86.628     3.981
29384.4     86.628     3.981
29811.8     86.628     3.981
30245.4     86.628     3.981
30685.3     86.628     3.981
31131.7     86.628     3.981
31584.5     86.628     3.981
32043.9     86.628     3.981
32510.0     86.628     3.981
32982.8     86.628     3.981
33462.6     86.628     3.981
33949.3     86.628     3.981
34443.1     86.628     3.981
34944.1     86.628     3.981
35452.4     86.628     3.981
35968.0     86.628     3.981
36491.2     86.628     3.981
37022.0     86.628     3.981
37560.5     86.628     3.981
38106.8     86.628     3.981
38661.1     86.628     3.981
39223.4     86.628     3.981
39793.9     86.628     3.981
