Freq[Hz]     dBSPL  Phase[Deg]
5.00000     21.483   -33.158
5.07273     21.750   -47.141
5.14651     22.016   -61.125
5.22137     22.283   -75.106
5.29732     22.578   -89.512
5.37437     22.891  -104.178
5.45254     23.203  -118.843
5.53185     23.496  -133.781
5.61231     23.759  -149.129
5.69394     24.022  -164.478
5.77676     24.301   179.956
5.86079     24.611   163.926
5.94604     24.921   147.898
6.03252     25.223   131.612
6.12027     25.513   114.900
6.20929     25.802    98.189
6.29961     26.078    81.104
6.39124     26.343    63.710
6.48420     26.609    46.315
6.57851     26.884    28.353
6.67420     27.161    10.277
6.77128     27.440    -7.947
6.86977     27.729   -26.707
6.96969     28.017   -45.466
7.07107     28.314   -64.702
7.17392     28.614   -84.143
7.27827     28.906  -103.766
7.38413     29.175  -123.891
7.49154     29.444  -144.013
7.60050     29.763  -164.768
7.71105     30.086   174.425
7.82321     30.358   153.175
7.93701     30.601   131.690
8.05245     30.870   109.892
8.16958     31.170    87.723
8.28841     31.472    65.334
8.40896     31.782    42.479
8.53128     32.081    19.455
8.65537     32.351    -4.080
8.78126     32.623   -27.784
8.90899     32.901   -52.000
9.03857     33.182   -76.420
9.17004     33.470  -101.320
9.30342     33.760  -126.491
9.43874     34.056  -152.074
9.57603     34.356  -178.032
9.71532     34.661   155.706
9.85663     34.929   128.928
10.0000     35.185   101.982
10.1455     35.565    73.853
10.2930     35.566    49.108
10.4427     34.638    32.705
10.5946     33.277    16.164
10.7487     31.651    -0.465
10.9051     29.305   -21.778
11.0637     26.391   -49.768
11.2246     22.635   -87.713
11.3879     22.355  -132.589
11.5535     23.847  -179.588
11.7216     27.710   131.720
11.8921     30.675   108.810
12.0650     33.140    91.946
12.2405     35.072    76.512
12.4186     36.366    62.897
12.5992     37.278    50.242
12.7825     37.816    38.610
12.9684     37.936    28.383
13.1570     37.616    19.453
13.3484     36.967    11.861
13.5426     35.947     6.767
13.7395     34.423     6.971
13.9394     33.100    11.260
14.1421     32.344    21.090
14.3478     32.372    31.512
14.5565     33.101    38.478
14.7683     34.065    40.718
14.9831     34.809    38.253
15.2010     34.599    31.830
15.4221     33.890    23.593
15.6464     32.289    11.339
15.8740     29.660    -6.286
16.1049     27.292   -35.920
16.3392     26.861   -78.373
16.5768     28.685  -117.849
16.8179     31.729  -140.449
17.0626     34.335  -150.684
17.3107     36.269  -156.142
17.5625     37.726  -158.955
17.8180     38.766  -159.489
18.0771     39.639  -158.679
18.3401     40.415  -156.650
18.6068     41.133  -153.267
18.8775     41.913  -149.132
19.1521     42.884  -144.974
19.4306     44.114  -141.515
19.7133     45.270  -139.684
20.0000     46.487  -139.504
20.2909     47.490  -140.639
20.5860     48.319  -142.610
20.8855     48.974  -144.965
21.1893     49.588  -147.314
21.4975     50.025  -149.428
21.8102     50.396  -151.354
22.1274     50.912  -153.337
22.4492     51.498  -155.591
22.7758     52.151  -158.302
23.1071     52.814  -161.485
23.4432     53.484  -164.884
23.7841     54.059  -168.213
24.1301     54.660  -171.195
24.4811     55.276  -173.793
24.8372     55.974  -175.955
25.1984     56.617  -177.794
25.5649     57.229  -179.296
25.9368     57.816   179.586
26.3141     58.402   178.936
26.6968     58.924   178.761
27.0851     59.536   178.927
27.4791     60.066   179.167
27.8788     60.693   179.176
28.2843     61.354   178.883
28.6957     61.898   178.297
29.1131     62.435   177.544
29.5365     63.043   176.684
29.9661     63.472   175.678
30.4020     64.080   174.421
30.8442     64.512   172.852
31.2929     65.005   171.055
31.7480     65.497   169.153
32.2098     66.055   167.254
32.6783     66.590   165.383
33.1536     67.145   163.500
33.6359     67.817   161.580
34.1251     68.449   159.639
34.6215     69.091   157.732
35.1250     69.649   155.901
35.6359     70.217   154.175
36.1543     70.884   152.530
36.6802     71.343   150.895
37.2137     71.956   149.157
37.7550     72.493   147.235
38.3041     72.864   145.121
38.8613     73.421   142.969
39.4265     73.840   140.884
40.0000     74.199   138.853
40.5818     74.683   136.756
41.1721     75.206   134.488
41.7710     75.816   132.046
42.3785     76.330   129.435
42.9949     76.952   126.705
43.6203     77.484   123.895
44.2548     78.087   121.061
44.8985     78.658   118.212
45.5515     79.102   115.313
46.2141     79.570   112.363
46.8863     80.050   109.374
47.5683     80.454   106.257
48.2602     81.003   102.860
48.9621     81.314    99.171
49.6743     81.769    95.352
50.3968     82.155    91.512
51.1299     82.603    87.661
51.8736     82.983    83.786
52.6281     83.431    79.876
53.3936     83.776    75.936
54.1702     84.075    71.975
54.9581     84.575    67.874
55.7575     84.702    63.526
56.5685     84.974    59.146
57.3914     85.056    54.879
58.2261     85.289    50.567
59.0730     85.468    46.264
59.9323     85.606    42.184
60.8040     85.703    38.196
61.6884     85.874    34.282
62.5857     85.909    30.614
63.4960     86.038    27.024
64.4196     86.190    23.384
65.3566     86.099    19.755
66.3073     86.293    16.086
67.2717     86.229    12.464
68.2502     86.199     8.964
69.2429     86.299     5.581
70.2501     86.399     2.345
71.2719     86.399    -0.751
72.3086     86.399    -3.654
73.3603     86.499    -6.532
74.4274     86.499    -9.508
75.5099     86.499   -12.483
76.6083     86.399   -15.416
77.7226     86.399   -18.319
78.8531     86.399   -21.041
80.0000     86.354   -23.527
81.1636     86.362   -25.881
82.3442     86.299   -28.104
83.5419     86.286   -30.227
84.7570     86.399   -32.329
85.9899     86.495   -34.401
87.2406     86.522   -36.651
88.5096     86.630   -38.898
89.7970     86.699   -41.225
91.1031     86.799   -43.726
92.4282     86.899   -46.384
93.7726     86.819   -48.903
95.1366     86.999   -51.764
96.5204     86.999   -54.742
97.9243     87.016   -57.744
99.3486     86.866   -60.500
100.794     86.749   -62.491
102.260     86.799   -63.917
103.747     86.799   -65.524
105.256     86.999   -67.567
106.787     87.099   -69.956
108.340     86.999   -72.258
109.916     87.199   -74.625
111.515     87.270   -77.004
113.137     87.399   -79.375
114.783     87.399   -81.740
116.452     87.398   -84.106
118.146     87.485   -86.486
119.865     87.480   -88.665
121.608     87.563   -91.071
123.377     87.599   -93.614
125.171     87.619   -96.241
126.992     87.636   -98.880
128.839     87.717  -101.602
130.713     87.756  -104.416
132.615     87.861  -107.350
134.543     87.866  -110.600
136.500     87.868  -113.906
138.486     87.879  -116.986
140.500     87.727  -120.396
142.544     87.478  -123.423
144.617     87.339  -125.696
146.721     87.166  -127.884
148.855     87.032  -130.349
151.020     86.816  -132.634
153.217     86.649  -134.670
155.445     86.466  -136.591
157.706     86.299  -138.490
160.000     86.177  -140.423
162.327     86.049  -142.342
164.688     85.877  -143.819
167.084     85.613  -144.770
169.514     85.442  -145.509
171.980     85.399  -146.527
174.481     85.299  -147.617
177.019     85.191  -148.619
179.594     85.070  -149.195
182.206     85.071  -149.692
184.856     85.156  -150.625
187.545     85.248  -151.782
190.273     85.299  -153.037
193.041     85.450  -154.457
195.849     85.486  -156.601
198.697     85.472  -158.894
201.587     85.453  -160.285
204.520     85.534  -162.050
207.494     85.540  -164.085
210.512     85.544  -166.505
213.574     85.536  -169.078
216.681     85.480  -171.257
219.833     85.404  -173.258
223.030     85.306  -175.245
226.274     85.143  -177.017
229.565     85.034  -178.804
232.905     84.909   179.259
236.292     84.761   177.343
239.729     84.549   175.728
243.216     84.385   174.348
246.754     84.132   173.534
250.343     83.909   173.135
253.984     83.719   172.899
257.678     83.578   172.800
261.426     83.481   172.919
265.229     83.487   173.165
269.087     83.467   173.420
273.001     83.579   173.512
276.972     83.663   173.301
281.000     83.780   172.771
285.088     83.911   171.904
289.234     84.042   170.731
293.441     84.215   169.258
297.709     84.352   167.535
302.040     84.399   165.613
306.433     84.399   163.480
310.890     84.399   161.208
315.412     84.357   158.962
320.000     84.291   156.821
324.655     84.157   154.852
329.377     83.984   153.120
334.168     83.763   151.563
339.028     83.522   150.358
343.959     83.306   149.515
348.962     83.145   148.992
354.038     83.013   148.731
359.188     82.878   148.634
364.412     82.799   148.598
369.713     82.770   148.510
375.090     82.779   148.275
380.546     82.826   147.825
386.081     82.899   147.152
391.697     82.899   146.246
397.394     82.899   145.150
403.175     82.899   144.000
409.039     82.899   142.797
414.989     82.899   141.606
421.025     82.881   140.517
427.149     82.799   139.557
433.362     82.699   138.732
439.665     82.621   137.988
446.060     82.599   137.348
452.548     82.599   136.783
459.131     82.516   136.256
465.809     82.499   135.759
472.584     82.499   135.308
479.458     82.499   134.911
486.432     82.499   134.560
493.507     82.579   134.243
500.686     82.604   133.918
507.968     82.704   133.527
515.357     82.839   132.992
522.853     83.028   132.224
530.458     83.185   131.164
538.174     83.309   129.822
546.002     83.442   128.228
553.943     83.563   126.392
562.001     83.667   124.377
570.175     83.708   122.253
578.469     83.799   120.084
586.883     83.799   117.971
595.419     83.799   115.946
604.080     83.724   113.980
612.866     83.699   112.082
621.780     83.699   110.250
630.824     83.603   108.470
640.000     83.599   106.755
649.309     83.599   105.069
658.753     83.549   103.348
668.335     83.499   101.530
678.056     83.499    99.679
687.919     83.474    97.779
697.925     83.399    95.869
708.077     83.399    94.026
718.376     83.399    92.235
728.825     83.299    90.487
739.426     83.299    88.740
750.181     83.299    86.957
761.093     83.236    85.138
772.163     83.199    83.370
783.394     83.180    81.717
794.789     83.099    80.222
806.349     83.099    78.891
818.078     83.099    77.509
829.977     83.190    75.784
842.050     83.320    73.435
854.298     83.399    70.342
866.724     83.399    66.616
879.330     83.350    62.394
892.120     83.090    58.288
905.097     82.646    55.024
918.262     82.082    52.558
931.618     81.464    50.974
945.169     80.815    50.430
958.917     80.233    50.830
972.864     79.773    51.756
987.015     79.458    52.619
1001.37     79.229    52.921
1015.94     79.022    52.446
1030.71     78.747    51.389
1045.71     78.330    50.303
1060.92     77.775    50.136
1076.35     77.244    51.819
1092.00     76.999    55.226
1107.89     77.242    58.473
1124.00     77.829    59.183
1140.35     78.403    56.751
1156.94     78.684    52.280
1173.77     78.686    47.455
1190.84     78.510    43.420
1208.16     78.288    40.357
1225.73     78.099    37.700
1243.56     77.999    34.807
1261.65     77.999    31.306
1280.00     77.981    27.111
1298.62     77.834    22.660
1317.51     77.612    18.880
1336.67     77.520    16.186
1356.11     77.776    13.106
1375.84     78.215     7.359
1395.85     78.455    -1.331
1416.15     78.251   -10.612
1436.75     77.713   -17.484
1457.65     77.171   -21.437
1478.85     76.999   -24.471
1500.36     77.045   -29.393
1522.19     76.904   -36.823
1544.33     76.289   -44.316
1566.79     75.364   -48.475
1589.58     74.783   -49.375
1612.70     74.786   -51.698
1636.16     74.727   -57.270
1659.95     74.239   -62.442
1684.10     73.771   -65.045
1708.60     73.699   -68.598
1733.45     73.405   -74.955
1758.66     72.533   -79.615
1784.24     71.786   -79.225
1810.19     71.806   -78.515
1836.52     72.046   -81.214
1863.24     72.209   -85.461
1890.34     72.359   -90.645
1917.83     72.399   -96.944
1945.73     72.382  -104.301
1974.03     72.048  -113.502
2002.74     70.975  -121.557
2031.87     69.598  -122.718
2061.43     69.146  -119.333
2091.41     69.646  -118.794
2121.83     70.314  -124.048
2152.69     70.281  -134.263
2184.01     69.065  -139.949
2215.77     68.547  -135.621
2248.00     69.444  -136.777
2280.70     69.699  -143.598
2313.87     69.841  -148.613
2347.53     69.813  -156.928
2381.68     68.740  -160.189
2416.32     68.862  -154.088
2451.46     70.239  -155.919
2487.12     70.957  -162.258
2523.30     71.855  -167.612
2560.00     72.740  -178.018
2597.24     72.831   169.604
2635.01     72.283   160.917
2673.34     71.954   158.664
2712.23     72.579   156.376
2751.68     73.590   151.051
2791.70     74.758   140.844
2832.31     75.393   126.309
2873.50     75.244   108.965
2915.30     73.628    96.845
2957.70     72.261    97.656
3000.72     72.824   100.343
3044.37     74.215    94.478
3088.65     75.324    82.216
3133.58     75.755    64.761
3179.16     75.116    49.533
3225.40     74.280    38.306
3272.31     73.623    30.890
3319.91     73.594    25.227
3368.20     74.612    17.091
3417.19     75.422    -1.968
3466.89     74.733   -24.209
3517.32     73.088   -36.377
3568.48     72.535   -46.213
3620.39     72.216   -56.771
3673.05     72.843   -73.069
3726.47     72.398  -101.176
3780.67     69.528  -124.509
3835.67     66.155  -131.842
3891.46     64.668  -137.040
3948.06     64.113  -155.133
4005.49     63.082   150.610
4063.75     59.296    40.255
4122.86     55.354   -60.110
4182.82     54.163   -57.998
4243.66     61.284   -25.864
4305.39     65.868   -57.699
4368.01     66.224   -94.079
4431.55     66.733  -119.576
4496.01     65.373  -131.218
4561.40     66.610  -135.446
4627.75     68.142  -147.608
4695.06     70.028  -169.485
4763.35     68.968   171.476
4832.64     69.403   168.500
4902.93     71.777   158.176
4974.24     73.127   132.689
5046.60     72.308   112.858
5120.00     71.662   102.799
5194.47     72.409    94.470
5270.03     72.799    77.765
5346.68     72.494    60.130
5424.45     71.512    47.970
5503.35     71.065    35.879
5583.40     70.794    20.869
5664.61     69.355     3.864
5747.01     67.654    -4.543
5830.60     67.360   -14.255
5915.41     66.420   -32.831
6001.45     64.888   -47.259
6088.74     63.644   -60.723
6177.30     62.597   -70.968
6267.15     61.798   -89.018
6358.31     59.995  -101.124
6450.80     59.034   -99.863
6544.62     58.953  -117.151
6639.82     55.432  -123.453
6736.40     55.515   -86.770
6834.38     58.622   -98.321
6933.79     57.826  -108.507
7034.64     60.443  -109.691
7136.96     60.495  -135.973
7240.77     60.126  -146.723
7346.09     61.276  -162.361
7452.94     61.440   176.649
7561.35     61.757   164.564
7671.33     63.596   147.874
7782.91     63.435   125.376
7896.12     63.766   112.405
8010.97     63.670    93.232
8127.49     63.265    78.991
8245.71     62.950    60.780
8365.65     61.778    45.111
8487.33     61.148    31.470
8610.78     60.470    13.967
8736.03     59.500    -4.681
8863.09     57.686   -12.976
8992.01     57.499   -17.137
9122.80     57.091   -21.270
9255.50     57.970   -26.780
9390.12     58.822   -34.562
9526.70     60.150   -55.558
9665.27     59.484   -74.487
9805.86     60.325   -91.625
9948.49     60.197  -112.495
10093.2     61.000  -135.752
10240.0     60.239  -159.159
10388.9     60.423   177.904
10540.1     59.285   152.125
10693.4     58.912   125.410
10848.9     57.869    96.064
11006.7     58.189    64.618
11166.8     56.523    38.892
11329.2     55.875    24.129
11494.0     55.826     9.929
11661.2     55.937   -10.210
11830.8     55.732   -27.710
12002.9     55.194   -46.813
12177.5     54.026   -55.474
12354.6     54.026   -59.764
12534.3     54.461   -65.381
12716.6     55.017   -72.081
12901.6     56.028   -85.305
13089.2     56.874  -112.937
13279.6     53.889  -160.117
13472.8     48.638   100.928
13668.8     43.673    -1.028
13867.6     44.873   -20.930
14069.3     45.762   -28.147
14273.9     45.797   -28.143
14481.5     48.165   -38.170
14692.2     48.801   -69.532
14905.9     46.934   -88.328
15122.7     47.528   -80.041
15342.7     50.893   -79.783
15565.8     52.950   -93.271
15792.2     53.059  -108.429
16021.9     51.889  -126.025
16255.0     49.467  -140.602
16491.4     47.433  -142.453
16731.3     48.722  -143.863
16974.7     49.167  -176.896
17221.6     45.412   138.364
17472.1     40.281     3.841
17726.2     44.994   -67.666
17984.0     50.625   -76.480
18245.6     53.572   -95.292
18511.0     54.419  -113.458
18780.2     53.756  -136.356
19053.4     51.657  -144.962
19330.5     52.633  -146.983
19611.7     53.649  -169.582
19897.0     52.609   171.198
20186.4     52.400   146.861
20480.0     52.191   122.524
20777.9     51.982    98.188
21080.1     51.773    73.850
21386.7     51.565    49.513
21697.8     51.356    25.179
22013.4     51.147     0.843
22333.6     50.938   -23.493
22658.4     50.729   -47.833
22988.0     50.521   -72.167
23322.4     50.312   -96.500
23661.6     50.103  -120.839
24005.8     49.894  -145.172
24355.0     49.686  -169.506
24709.2     49.477   166.154
25068.6     49.268   141.818
25433.2     49.059   117.480
25803.2     48.850    93.148
26178.5     48.642    68.811
26559.3     48.433    44.476
26945.6     48.224    20.139
27337.5     48.015    -4.199
27735.2     47.807   -28.531
28138.6     47.598   -52.868
28547.9     47.389   -77.203
28963.1     47.180  -101.542
29384.4     46.971  -125.876
29811.8     46.763  -150.213
30245.4     46.554  -174.550
30685.3     46.345   161.112
31131.7     46.136   136.780
31584.5     45.928   112.443
32043.9     45.719    88.107
32510.0     45.510    63.771
32982.8     45.301    39.432
33462.6     45.092    15.099
33949.3     44.884    -9.240
34443.1     44.675   -33.576
34944.1     44.466   -57.911
35452.4     44.257   -82.246
35968.0     44.048  -106.585
36491.2     43.840  -130.920
37022.0     43.631  -155.254
37560.5     43.422  -179.590
38106.8     43.213   156.072
38661.1     43.005   131.737
39223.4     42.796   107.400
39793.9     42.587    83.063
