Freq[Hz]     dBSPL  Phase[Deg]
5.00000     18.485   -35.132
5.07273     18.765   -49.182
5.14651     19.046   -63.233
5.22137     19.327   -77.283
5.29732     19.635   -91.759
5.37437     19.962  -106.495
5.45254     20.288  -121.232
5.53185     20.594  -136.242
5.61231     20.871  -151.664
5.69394     21.148  -167.088
5.77676     21.441   177.270
5.86079     21.765   161.164
5.94604     22.088   145.057
6.03252     22.405   128.692
6.12027     22.708   111.900
6.20929     23.011    95.107
6.29961     23.301    77.939
6.39124     23.580    60.461
6.48420     23.859    42.981
6.57851     24.148    24.933
6.67420     24.439     6.769
6.77128     24.732   -11.545
6.86977     25.035   -30.395
6.96969     25.337   -49.245
7.07107     25.647   -68.574
7.17392     25.961   -88.110
7.27827     26.267  -107.828
7.38413     26.550  -128.050
7.49154     26.832  -148.270
7.60050     27.165  -169.125
7.71105     27.502   169.967
7.82321     27.787   148.614
7.93701     28.045   127.024
8.05245     28.328   105.121
8.16958     28.641    82.845
8.28841     28.957    60.347
8.40896     29.281    37.381
8.53128     29.594    14.245
8.65537     29.878    -9.404
8.78126     30.163   -33.223
8.90899     30.455   -57.557
9.03857     30.750   -82.095
9.17004     31.051  -107.115
9.30342     31.356  -132.409
9.43874     31.665  -158.116
9.57603     31.980   175.800
9.71532     32.298   149.411
9.85663     32.580   122.503
10.0000     32.849    95.426
10.1455     33.243    67.163
10.2930     33.258    42.283
10.4427     32.344    25.743
10.5946     30.997     9.063
10.7487     29.385    -7.707
10.9051     27.052   -29.163
11.0637     24.152   -57.299
11.2246     20.410   -95.392
11.3879     20.144  -140.417
11.5535     21.650   172.432
11.7216     25.527   123.586
11.8921     28.505   100.520
12.0650     30.984    83.497
12.2405     32.930    67.903
12.4186     34.237    54.124
12.5992     35.164    41.303
12.7825     35.715    29.503
12.9684     35.849    19.106
13.1570     35.543    10.003
13.3484     34.908     2.236
13.5426     33.902    -3.036
13.7395     32.391    -3.012
13.9394     31.083     1.093
14.1421     30.339    10.738
14.3478     30.381    20.971
14.5565     31.124    27.745
14.7683     32.102    29.792
14.9831     32.860    27.130
15.2010     32.664    20.507
15.4221     31.969    12.067
15.6464     30.382    -0.392
15.8740     27.766   -18.226
16.1049     25.412   -48.071
16.3392     24.995   -90.740
16.5768     26.833  -130.433
16.8179     29.890  -153.254
17.0626     32.510  -163.713
17.3107     34.458  -169.399
17.5625     35.929  -172.442
17.8180     36.983  -173.211
18.0771     37.870  -172.638
18.3401     38.660  -170.850
18.6068     39.391  -167.711
18.8775     40.185  -163.824
19.1521     41.170  -159.917
19.4306     42.414  -156.714
19.7133     43.583  -155.143
20.0000     44.814  -155.226
20.2909     45.831  -156.627
20.5860     46.719  -158.834
20.8855     47.374  -161.447
21.1893     47.988  -164.058
21.4975     48.425  -166.436
21.8102     48.796  -168.628
22.1274     49.354  -170.879
22.4492     49.968  -173.403
22.7758     50.570  -176.386
23.1071     51.314  -179.843
23.4432     51.984   176.484
23.7841     52.559   172.878
24.1301     53.160   169.618
24.4811     53.861   166.742
24.8372     54.492   164.300
25.1984     55.198   162.182
25.5649     55.829   160.400
25.9368     56.498   159.002
26.3141     57.016   158.073
26.6968     57.614   157.619
27.0851     58.236   157.507
27.4791     58.862   157.470
27.8788     59.405   157.203
28.2843     60.154   156.635
28.6957     60.734   155.778
29.1131     61.285   154.755
29.5365     61.843   153.626
29.9661     62.355   152.356
30.4020     62.982   150.837
30.8442     63.490   149.010
31.2929     63.951   146.959
31.7480     64.497   144.807
32.2098     65.151   142.661
32.6783     65.713   140.549
33.1536     66.292   138.429
33.6359     66.917   136.277
34.1251     67.649   134.110
34.6215     68.345   131.983
35.1250     68.949   129.937
35.6359     69.517   128.003
36.1543     70.184   126.156
36.6802     70.743   124.327
37.2137     71.417   122.401
37.7550     71.903   120.299
38.3041     72.364   118.012
38.8613     72.933   115.695
39.4265     73.440   113.453
40.0000     73.799   111.273
40.5818     74.365   109.035
41.1721     74.906   106.634
41.7710     75.610   104.068
42.3785     76.102   101.343
42.9949     76.793    98.507
43.6203     77.384    95.600
44.2548     77.987    92.678
44.8985     78.618    89.751
45.5515     79.102    86.783
46.2141     79.590    83.772
46.8863     80.150    80.733
47.5683     80.554    77.575
48.2602     81.181    74.148
48.9621     81.484    70.438
49.6743     81.969    66.608
50.3968     82.417    62.765
51.1299     82.903    58.922
51.8736     83.348    55.066
52.6281     83.802    51.184
53.3936     84.176    47.282
54.1702     84.567    43.369
54.9581     84.982    39.326
55.7575     85.128    35.046
56.5685     85.526    30.744
57.3914     85.584    26.564
58.2261     85.889    22.351
59.0730     86.068    18.156
59.9323     86.206    14.195
60.8040     86.399    10.335
61.6884     86.529     6.559
62.5857     86.609     3.041
63.4960     86.738    -0.390
64.4196     86.890    -3.860
65.3566     86.852    -7.309
66.3073     86.999   -10.787
67.2717     86.999   -14.208
68.2502     86.999   -17.496
69.2429     87.099   -20.656
70.2501     87.199   -23.659
71.2719     87.199   -26.510
72.3086     87.199   -29.156
73.3603     87.299   -31.767
74.4274     87.323   -34.464
75.5099     87.318   -37.148
76.6083     87.199   -39.778
77.7226     87.199   -42.366
78.8531     87.199   -44.760
80.0000     87.154   -46.906
81.1636     87.199   -48.906
82.3442     87.099   -50.762
83.5419     87.086   -52.504
84.7570     87.199   -54.211
85.9899     87.295   -55.873
87.2406     87.299   -57.697
88.5096     87.430   -59.504
89.7970     87.399   -61.374
91.1031     87.576   -63.402
92.4282     87.599   -65.569
93.7726     87.519   -67.579
95.1366     87.599   -69.912
96.5204     87.699   -72.342
97.9243     87.616   -74.777
99.3486     87.466   -76.944
100.794     87.349   -78.324
102.260     87.399   -79.117
103.747     87.399   -80.066
105.256     87.457   -81.426
106.787     87.499   -83.106
108.340     87.499   -84.671
109.916     87.599   -86.275
111.515     87.670   -87.860
113.137     87.705   -89.405
114.783     87.799   -90.914
116.452     87.698   -92.390
118.146     87.747   -93.846
119.865     87.749   -95.067
121.608     87.856   -96.478
123.377     87.899   -97.992
125.171     87.899   -99.554
126.992     87.913  -101.094
128.839     87.999  -102.684
130.713     88.056  -104.335
132.615     88.149  -106.081
134.543     88.149  -108.091
136.500     88.208  -110.134
138.486     88.199  -112.074
140.500     88.127  -114.250
142.544     87.962  -115.962
144.617     87.899  -117.073
146.721     87.799  -118.154
148.855     87.766  -119.483
151.020     87.649  -120.721
153.217     87.599  -121.808
155.445     87.549  -122.887
157.706     87.482  -124.053
160.000     87.477  -125.318
162.327     87.449  -126.687
164.688     87.377  -127.756
167.084     87.256  -128.356
169.514     87.213  -128.797
171.980     87.170  -129.578
174.481     87.132  -130.476
177.019     87.077  -131.294
179.594     86.985  -131.657
182.206     86.971  -131.891
184.856     87.071  -132.505
187.545     87.133  -133.301
190.273     87.137  -134.093
193.041     87.264  -134.969
195.849     87.274  -136.482
198.697     87.172  -138.011
201.587     87.128  -138.547
204.520     87.134  -139.371
207.494     87.140  -140.389
210.512     87.144  -141.653
213.574     87.136  -143.008
216.681     87.080  -143.997
219.833     87.026  -144.706
223.030     86.951  -145.314
226.274     86.865  -145.725
229.565     86.834  -146.202
232.905     86.809  -146.912
236.292     86.783  -147.721
239.729     86.699  -148.336
243.216     86.718  -148.920
246.754     86.602  -149.176
250.343     86.549  -149.250
253.984     86.499  -149.421
257.678     86.478  -149.679
261.426     86.399  -149.899
265.229     86.437  -150.075
269.087     86.467  -150.223
273.001     86.409  -150.422
276.972     86.399  -150.727
281.000     86.398  -151.087
285.088     86.286  -151.446
289.234     86.279  -151.765
293.441     86.182  -152.042
297.709     86.188  -152.267
302.040     86.124  -152.418
306.433     86.024  -152.473
310.890     85.922  -152.399
315.412     85.832  -152.198
320.000     85.799  -151.884
324.655     85.799  -151.483
329.377     85.722  -151.030
334.168     85.699  -150.532
339.028     85.699  -150.073
343.959     85.720  -149.692
348.962     85.807  -149.413
354.038     85.899  -149.249
359.188     85.899  -149.191
364.412     85.919  -149.231
369.713     85.999  -149.337
375.090     85.999  -149.477
380.546     85.999  -149.618
386.081     85.999  -149.727
391.697     85.999  -149.786
397.394     85.962  -149.786
403.175     85.899  -149.733
409.039     85.899  -149.640
414.989     85.899  -149.521
421.025     85.899  -149.386
427.149     85.837  -149.227
433.362     85.799  -149.017
439.665     85.699  -148.688
446.060     85.699  -148.189
452.548     85.638  -147.457
459.131     85.599  -146.432
465.809     85.504  -145.107
472.584     85.593  -143.604
479.458     85.725  -142.082
486.432     85.946  -140.703
493.507     86.199  -139.685
500.686     86.494  -139.191
507.968     86.794  -139.298
515.357     87.079  -139.950
522.853     87.351  -141.063
530.458     87.499  -142.503
538.174     87.594  -144.075
546.002     87.599  -145.629
553.943     87.567  -147.081
562.001     87.499  -148.354
570.175     87.403  -149.418
578.469     87.303  -150.303
586.883     87.208  -151.062
595.419     87.112  -151.781
604.080     87.012  -152.529
612.866     86.882  -153.321
621.780     86.747  -154.124
630.824     86.559  -154.869
640.000     86.351  -155.467
649.309     86.115  -155.867
658.753     85.872  -156.051
668.335     85.603  -156.021
678.056     85.349  -155.804
687.919     85.092  -155.425
697.925     84.825  -154.902
708.077     84.595  -154.233
718.376     84.385  -153.383
728.825     84.116  -152.310
739.426     83.871  -150.982
750.181     83.672  -149.384
761.093     83.466  -147.543
772.163     83.279  -145.557
783.394     83.170  -143.466
794.789     83.040  -141.253
806.349     82.880  -138.903
818.078     82.744  -136.198
829.977     82.640  -132.999
842.050     82.652  -129.374
854.298     82.805  -125.707
866.724     83.090  -122.542
879.330     83.439  -120.044
892.120     83.782  -117.930
905.097     84.077  -115.555
918.262     84.432  -113.203
931.618     84.891  -111.397
945.169     85.413  -110.686
958.917     85.894  -111.442
972.864     86.228  -113.532
987.015     86.299  -116.340
1001.37     86.192  -118.992
1015.94     85.854  -120.546
1030.71     85.499  -120.540
1045.71     85.301  -119.394
1060.92     85.309  -118.320
1076.35     85.447  -118.456
1092.00     85.564  -119.946
1107.89     85.494  -122.097
1124.00     85.313  -123.934
1140.35     85.106  -125.050
1156.94     84.982  -125.978
1173.77     84.895  -127.477
1190.84     84.742  -129.513
1208.16     84.480  -131.199
1225.73     84.189  -131.972
1243.56     84.099  -132.604
1261.65     84.161  -134.356
1280.00     84.115  -137.166
1298.62     83.944  -139.817
1317.51     83.799  -141.837
1336.67     83.799  -144.222
1356.11     83.746  -147.698
1375.84     83.537  -151.339
1395.85     83.326  -153.953
1416.15     83.329  -156.003
1436.75     83.474  -158.734
1457.65     83.478  -162.657
1478.85     83.240  -166.442
1500.36     82.879  -168.798
1522.19     82.634  -170.016
1544.33     82.525  -171.282
1566.79     82.496  -173.257
1589.58     82.361  -175.471
1612.70     82.220  -177.152
1636.16     82.199  -178.474
1659.95     82.199   179.722
1684.10     82.199   177.451
1708.60     82.108   175.541
1733.45     82.102   173.881
1758.66     82.199   171.536
1784.24     82.138   168.780
1810.19     82.041   166.320
1836.52     81.883   163.808
1863.24     81.676   161.754
1890.34     81.528   160.978
1917.83     81.616   160.162
1945.73     81.735   158.970
1974.03     82.028   157.733
2002.74     82.448   154.352
2031.87     82.569   149.193
2061.43     82.376   144.760
2091.41     82.026   141.563
2121.83     81.550   140.717
2152.69     81.463   142.464
2184.01     82.001   143.297
2215.77     82.681   140.422
2248.00     82.988   135.141
2280.70     82.925   130.622
2313.87     82.774   128.061
2347.53     82.808   126.585
2381.68     83.020   124.823
2416.32     83.317   121.861
2451.46     83.490   118.055
2487.12     83.557   114.836
2523.30     83.660   111.972
2560.00     83.769   108.826
2597.24     83.799   105.512
2635.01     83.983   103.676
2673.34     84.392   100.438
2712.23     84.646    95.883
2751.68     84.761    91.439
2791.70     84.849    87.790
2832.31     84.999    83.661
2873.50     85.143    80.266
2915.30     85.389    74.815
2957.70     85.299    69.700
3000.72     85.207    65.034
3044.37     85.018    61.565
3088.65     84.917    58.417
3133.58     85.051    55.115
3179.16     84.969    51.006
3225.40     84.985    47.377
3272.31     84.804    43.496
3319.91     84.817    41.064
3368.20     84.863    37.822
3417.19     84.924    34.468
3466.89     85.031    30.234
3517.32     84.862    26.248
3568.48     84.848    23.787
3620.39     84.958    19.902
3673.05     84.951    14.978
3726.47     84.668    10.753
3780.67     84.333     9.105
3835.67     84.520     7.422
3891.46     84.687     3.151
3948.06     84.418    -1.209
4005.49     84.221    -2.783
4063.75     84.374    -5.086
4122.86     84.335    -9.240
4182.82     84.123   -11.158
4243.66     84.262   -12.994
4305.39     84.472   -15.958
4368.01     84.483   -19.674
4431.55     84.546   -22.288
4496.01     84.801   -26.079
4561.40     84.855   -31.481
4627.75     84.673   -35.312
4695.06     84.770   -38.715
4763.35     84.701   -43.684
4832.64     84.599   -47.501
4902.93     84.577   -52.438
4974.24     84.260   -57.436
5046.60     84.010   -60.900
5120.00     83.774   -64.897
5194.47     83.478   -68.461
5270.03     83.273   -72.114
5346.68     82.916   -76.287
5424.45     82.404   -79.682
5503.35     81.936   -81.722
5583.40     81.629   -83.987
5664.61     81.017   -86.186
5747.01     80.582   -84.970
5830.60     80.378   -84.660
5915.41     80.365   -82.031
6001.45     80.987   -82.531
6088.74     81.359   -84.903
6177.30     81.848   -89.008
6267.15     81.918   -94.413
6358.31     81.952   -98.239
6450.80     81.999  -102.264
6544.62     81.999  -106.807
6639.82     82.043  -110.731
6736.40     82.047  -115.833
6834.38     81.999  -120.411
6933.79     81.861  -125.789
7034.64     81.642  -130.531
7136.96     81.301  -135.418
7240.77     80.952  -139.586
7346.09     80.517  -144.131
7452.94     80.061  -147.750
7561.35     79.570  -150.864
7671.33     79.075  -152.619
7782.91     78.690  -153.878
7896.12     78.422  -154.355
8010.97     78.338  -155.406
8127.49     78.455  -156.894
8245.71     78.752  -160.347
8365.65     78.755  -165.787
8487.33     78.465  -171.233
8610.78     77.985  -175.796
8736.03     77.399  -178.777
8863.09     76.862  -179.836
8992.01     76.571   179.538
9122.80     76.399   179.287
9255.50     76.384   178.079
9390.12     76.299   177.079
9526.70     76.299   176.164
9665.27     76.442   175.241
9805.86     76.697   173.467
9948.49     76.970   170.212
10093.2     77.047   166.213
10240.0     76.995   162.475
10388.9     76.899   159.406
10540.1     76.953   156.310
10693.4     76.999   152.391
10848.9     76.880   147.785
11006.7     76.532   143.379
11166.8     76.108   141.075
11329.2     75.930   140.228
11494.0     76.019   138.777
11661.2     76.272   136.844
11830.8     76.663   133.294
12002.9     76.956   127.949
12177.5     77.063   121.139
12354.6     76.843   114.590
12534.3     76.521   109.166
12716.6     76.204   104.409
12901.6     76.002    99.807
13089.2     75.863    93.841
13279.6     75.504    86.949
13472.8     75.048    80.968
13668.8     74.644    74.642
13867.6     73.950    67.475
14069.3     72.981    62.529
14273.9     72.052    59.224
14481.5     70.936    57.449
14692.2     70.045    59.761
14905.9     69.948    63.585
15122.7     70.427    65.423
15342.7     71.130    63.314
15565.8     71.705    58.797
15792.2     72.163    53.342
16021.9     72.557    46.917
16255.0     72.857    39.377
16491.4     72.993    31.516
16731.3     72.999    23.789
16974.7     72.907    15.235
17221.6     72.630     6.647
17472.1     72.134    -0.614
17726.2     71.674    -6.966
17984.0     71.185   -12.913
18245.6     70.835   -18.011
18511.0     70.675   -23.709
18780.2     70.446   -31.160
19053.4     70.128   -39.380
19330.5     69.716   -48.619
19611.7     69.085   -58.396
19897.0     68.392   -66.502
20186.4     68.216   -71.170
20480.0     68.040   -75.836
20777.9     67.864   -80.503
21080.1     67.689   -85.169
21386.7     67.513   -89.835
21697.8     67.337   -94.502
22013.4     67.162   -99.168
22333.6     66.986  -103.835
22658.4     66.810  -108.502
22988.0     66.634  -113.168
23322.4     66.459  -117.834
23661.6     66.283  -122.500
24005.8     66.107  -127.167
24355.0     65.931  -131.832
24709.2     65.756  -136.500
25068.6     65.580  -141.166
25433.2     65.404  -145.834
25803.2     65.228  -150.499
26178.5     65.053  -155.165
26559.3     64.877  -159.832
26945.6     64.701  -164.498
27337.5     64.526  -169.165
27735.2     64.350  -173.830
28138.6     64.174  -178.498
28547.9     63.998   176.837
28963.1     63.823   172.170
29384.4     63.647   167.503
29811.8     63.471   162.837
30245.4     63.295   158.170
30685.3     63.120   153.504
31131.7     62.944   148.837
31584.5     62.768   144.171
32043.9     62.592   139.504
32510.0     62.417   134.838
32982.8     62.241   130.172
33462.6     62.065   125.505
33949.3     61.889   120.839
34443.1     61.714   116.172
34944.1     61.538   111.506
35452.4     61.362   106.839
35968.0     61.187   102.173
36491.2     61.011    97.507
37022.0     60.835    92.840
37560.5     60.659    88.174
38106.8     60.484    83.507
38661.1     60.308    78.841
39223.4     60.132    74.174
39793.9     59.956    69.508
