Freq[Hz]     dBSPL  Phase[Deg]
5.00000     16.400   -38.073
5.07273     16.693   -52.137
5.14651     16.987   -66.203
5.22137     17.281   -80.267
5.29732     17.603   -94.757
5.37437     17.943  -109.508
5.45254     18.282  -124.260
5.53185     18.602  -139.286
5.61231     18.892  -154.724
5.69394     19.183  -170.163
5.77676     19.488   174.179
5.86079     19.825   158.056
5.94604     20.162   141.934
6.03252     20.492   125.551
6.12027     20.808   108.742
6.20929     21.124    91.932
6.29961     21.428    74.747
6.39124     21.720    57.251
6.48420     22.013    39.753
6.57851     22.315    21.687
6.67420     22.619     3.504
6.77128     22.925   -14.828
6.86977     23.241   -33.697
6.96969     23.557   -52.566
7.07107     23.880   -71.915
7.17392     24.207   -91.471
7.27827     24.526  -111.210
7.38413     24.822  -131.452
7.49154     25.118  -151.693
7.60050     25.464  -172.568
7.71105     25.815   166.502
7.82321     26.113   145.127
7.93701     26.384   123.516
8.05245     26.680   101.590
8.16958     27.006    79.291
8.28841     27.336    56.770
8.40896     27.673    33.781
8.53128     27.999    10.622
8.65537     28.296   -13.051
8.78126     28.595   -36.895
8.90899     28.900   -61.253
9.03857     29.208   -85.816
9.17004     29.523  -110.862
9.30342     29.840  -136.181
9.43874     30.163  -161.914
9.57603     30.491   171.975
9.71532     30.822   145.559
9.85663     31.117   118.624
10.0000     31.400    91.519
10.1455     31.808    63.228
10.2930     31.835    38.320
10.4427     30.934    21.751
10.5946     29.601     5.041
10.7487     28.002   -11.758
10.9051     25.683   -33.245
11.0637     22.796   -61.411
11.2246     19.067   -99.535
11.3879     18.814  -144.592
11.5535     20.333   168.225
11.7216     24.223   119.347
11.8921     27.215    96.248
12.0650     29.708    79.191
12.2405     31.666    63.563
12.4186     32.987    49.751
12.5992     33.927    36.895
12.7825     34.491    25.059
12.9684     34.638    14.626
13.1570     34.346     5.487
13.3484     33.724    -2.317
13.5426     32.731    -7.627
13.7395     31.234    -7.641
13.9394     29.938    -3.574
14.1421     29.208     6.031
14.3478     29.263    16.224
14.5565     30.020    22.959
14.7683     31.011    24.965
14.9831     31.782    22.261
15.2010     31.599    15.596
15.4221     30.917     7.113
15.6464     29.343    -5.389
15.8740     26.741   -23.267
16.1049     24.400   -53.157
16.3392     23.996   -95.870
16.5768     25.847  -135.610
16.8179     28.918  -158.477
17.0626     31.551  -168.983
17.3107     33.513  -174.717
17.5625     34.996  -177.809
17.8180     36.064  -178.627
18.0771     36.964  -178.104
18.3401     37.767  -176.367
18.6068     38.512  -173.280
18.8775     39.319  -169.445
19.1521     40.317  -165.591
19.4306     41.574  -162.442
19.7133     42.757  -160.925
20.0000     44.001  -161.063
20.2909     45.031  -162.521
20.5860     45.941  -164.788
20.8855     46.671  -167.464
21.1893     47.202  -170.138
21.4975     47.695  -172.578
21.8102     48.096  -174.831
22.1274     48.654  -177.142
22.4492     49.268  -179.725
22.7758     49.870   177.234
23.1071     50.614   173.721
23.4432     51.286   169.993
23.7841     51.954   166.333
24.1301     52.560   163.021
24.4811     53.261   160.096
24.8372     53.892   157.606
25.1984     54.598   155.441
25.5649     55.229   153.615
25.9368     55.898   152.175
26.3141     56.502   151.205
26.6968     57.114   150.713
27.0851     57.736   150.565
27.4791     58.366   150.495
27.8788     58.993   150.198
28.2843     59.654   149.602
28.6957     60.234   148.718
29.1131     60.835   147.672
29.5365     61.443   146.523
29.9661     61.955   145.234
30.4020     62.582   143.700
30.8442     63.112   141.860
31.2929     63.651   139.799
31.7480     64.197   137.640
32.2098     64.851   135.489
32.6783     65.413   133.376
33.1536     66.045   131.257
33.6359     66.717   129.108
34.1251     67.449   126.948
34.6215     68.091   124.830
35.1250     68.649   122.795
35.6359     69.317   120.876
36.1543     69.984   119.045
36.6802     70.543   117.235
37.2137     71.217   115.331
37.7550     71.803   113.252
38.3041     72.264   110.992
38.8613     72.833   108.703
39.4265     73.340   106.491
40.0000     73.776   104.343
40.5818     74.265   102.140
41.1721     74.806    99.776
41.7710     75.516    97.249
42.3785     76.102    94.563
42.9949     76.793    91.770
43.6203     77.295    88.906
44.2548     77.987    86.029
44.8985     78.618    83.149
45.5515     79.102    80.229
46.2141     79.590    77.268
46.8863     80.154    74.280
47.5683     80.564    71.174
48.2602     81.181    67.800
48.9621     81.584    64.144
49.6743     82.033    60.370
50.3968     82.517    56.583
51.1299     82.965    52.798
51.8736     83.448    49.000
52.6281     83.902    45.177
53.3936     84.276    41.335
54.1702     84.667    37.483
54.9581     85.082    33.501
55.7575     85.228    29.283
56.5685     85.626    25.044
57.3914     85.756    20.928
58.2261     85.989    16.779
59.0730     86.199    12.649
59.9323     86.372     8.754
60.8040     86.499     4.960
61.6884     86.674     1.251
62.5857     86.799    -2.200
63.4960     86.899    -5.563
64.4196     86.999    -8.964
65.3566     86.999   -12.343
66.3073     87.193   -15.751
67.2717     87.099   -19.100
68.2502     87.099   -22.317
69.2429     87.199   -25.404
70.2501     87.299   -28.333
71.2719     87.361   -31.109
72.3086     87.354   -33.679
73.3603     87.431   -36.213
74.4274     87.423   -38.832
75.5099     87.418   -41.437
76.6083     87.299   -43.986
77.7226     87.299   -46.492
78.8531     87.299   -48.801
80.0000     87.254   -50.861
81.1636     87.262   -52.774
82.3442     87.199   -54.539
83.5419     87.186   -56.190
84.7570     87.243   -57.803
85.9899     87.314   -59.368
87.2406     87.399   -61.092
88.5096     87.430   -62.796
89.7970     87.399   -64.561
91.1031     87.599   -66.479
92.4282     87.599   -68.533
93.7726     87.519   -70.426
95.1366     87.599   -72.638
96.5204     87.656   -74.942
97.9243     87.616   -77.246
99.3486     87.437   -79.277
100.794     87.249   -80.516
102.260     87.299   -81.160
103.747     87.299   -81.955
105.256     87.399   -83.154
106.787     87.399   -84.665
108.340     87.399   -86.053
109.916     87.499   -87.472
111.515     87.570   -88.862
113.137     87.599   -90.205
114.783     87.599   -91.500
116.452     87.598   -92.754
118.146     87.647   -93.977
119.865     87.580   -94.955
121.608     87.663   -96.112
123.377     87.699   -97.362
125.171     87.699   -98.649
126.992     87.713   -99.906
128.839     87.799  -101.205
130.713     87.856  -102.559
132.615     87.961  -104.002
134.543     87.999  -105.703
136.500     88.008  -107.434
138.486     88.099  -109.100
140.500     88.027  -110.986
142.544     87.911  -112.402
144.617     87.839  -113.262
146.721     87.799  -114.115
148.855     87.799  -115.225
151.020     87.749  -116.276
153.217     87.699  -117.209
155.445     87.699  -118.165
157.706     87.682  -119.239
160.000     87.734  -120.436
162.327     87.716  -121.763
164.688     87.693  -122.813
167.084     87.570  -123.410
169.514     87.570  -123.860
171.980     87.556  -124.658
174.481     87.532  -125.574
177.019     87.491  -126.409
179.594     87.413  -126.786
182.206     87.408  -127.026
184.856     87.499  -127.636
187.545     87.576  -128.419
190.273     87.612  -129.184
193.041     87.707  -130.021
195.849     87.774  -131.485
198.697     87.672  -132.951
201.587     87.628  -133.415
204.520     87.634  -134.159
207.494     87.640  -135.091
210.512     87.666  -136.261
213.574     87.636  -137.523
216.681     87.580  -138.425
219.833     87.560  -139.045
223.030     87.495  -139.567
226.274     87.432  -139.901
229.565     87.411  -140.309
232.905     87.409  -140.961
236.292     87.394  -141.719
239.729     87.319  -142.287
243.216     87.318  -142.826
246.754     87.252  -143.035
250.343     87.199  -143.050
253.984     87.129  -143.148
257.678     87.118  -143.314
261.426     87.099  -143.412
265.229     87.097  -143.439
269.087     87.067  -143.413
273.001     87.099  -143.417
276.972     87.099  -143.512
281.000     87.098  -143.645
285.088     87.019  -143.770
289.234     86.979  -143.873
293.441     87.007  -143.967
297.709     87.052  -144.054
302.040     86.999  -144.126
306.433     86.999  -144.171
310.890     86.922  -144.170
315.412     86.899  -144.126
320.000     86.899  -144.044
324.655     86.899  -143.933
329.377     86.899  -143.806
334.168     86.899  -143.667
339.028     86.899  -143.540
343.959     86.899  -143.438
348.962     86.899  -143.365
354.038     86.899  -143.322
359.188     86.899  -143.300
364.412     86.899  -143.291
369.713     86.899  -143.281
375.090     86.899  -143.258
380.546     86.899  -143.207
386.081     86.899  -143.123
391.697     86.868  -143.001
397.394     86.799  -142.846
403.175     86.799  -142.675
409.039     86.746  -142.486
414.989     86.799  -142.279
421.025     86.728  -142.051
427.149     86.693  -141.780
433.362     86.599  -141.431
439.665     86.527  -140.931
446.060     86.499  -140.253
452.548     86.471  -139.367
459.131     86.399  -138.243
465.809     86.399  -136.912
472.584     86.421  -135.504
479.458     86.557  -134.155
486.432     86.746  -132.971
493.507     86.924  -132.090
500.686     87.119  -131.595
507.968     87.309  -131.503
515.357     87.469  -131.739
522.853     87.647  -132.200
530.458     87.699  -132.759
538.174     87.699  -133.270
546.002     87.632  -133.630
553.943     87.599  -133.784
562.001     87.563  -133.721
570.175     87.499  -133.482
578.469     87.499  -133.153
586.883     87.499  -132.836
595.419     87.499  -132.592
604.080     87.499  -132.428
612.866     87.499  -132.313
621.780     87.483  -132.179
630.824     87.399  -131.955
640.000     87.359  -131.594
649.309     87.299  -131.083
658.753     87.234  -130.422
668.335     87.199  -129.621
678.056     87.199  -128.742
687.919     87.199  -127.803
697.925     87.199  -126.842
708.077     87.260  -125.922
718.376     87.381  -125.076
728.825     87.471  -124.344
739.426     87.561  -123.739
750.181     87.692  -123.239
761.093     87.799  -122.803
772.163     87.876  -122.401
783.394     87.993  -122.021
794.789     88.099  -121.678
806.349     88.170  -121.415
818.078     88.229  -121.248
829.977     88.299  -121.186
842.050     88.358  -121.235
854.298     88.399  -121.398
866.724     88.399  -121.660
879.330     88.399  -121.947
892.120     88.296  -121.914
905.097     88.152  -121.108
918.262     88.027  -119.942
931.618     87.931  -118.778
945.169     87.848  -117.785
958.917     87.736  -116.976
972.864     87.560  -116.127
987.015     87.363  -114.906
1001.37     87.204  -113.154
1015.94     87.099  -111.194
1030.71     87.196  -109.612
1045.71     87.287  -108.742
1060.92     87.389  -108.551
1076.35     87.399  -108.774
1092.00     87.399  -109.222
1107.89     87.399  -109.842
1124.00     87.319  -110.478
1140.35     87.221  -110.859
1156.94     87.142  -110.924
1173.77     87.179  -110.994
1190.84     87.261  -111.541
1208.16     87.371  -112.742
1225.73     87.399  -114.470
1243.56     87.399  -116.516
1261.65     87.399  -118.686
1280.00     87.399  -120.821
1298.62     87.454  -122.971
1317.51     87.545  -125.558
1336.67     87.599  -128.856
1356.11     87.599  -132.480
1375.84     87.639  -136.040
1395.85     87.730  -139.955
1416.15     87.799  -144.636
1436.75     87.740  -149.129
1457.65     87.502  -152.587
1478.85     87.320  -154.952
1500.36     87.299  -157.411
1522.19     87.219  -160.758
1544.33     87.024  -164.291
1566.79     86.759  -167.223
1589.58     86.489  -169.617
1612.70     86.229  -171.631
1636.16     86.054  -173.247
1659.95     85.942  -174.759
1684.10     85.809  -176.314
1708.60     85.699  -177.588
1733.45     85.699  -178.823
1758.66     85.699   179.285
1784.24     85.699   177.027
1810.19     85.637   174.941
1836.52     85.522   172.897
1863.24     85.399   171.354
1890.34     85.435   170.278
1917.83     85.536   168.460
1945.73     85.531   166.761
1974.03     85.737   165.854
2002.74     86.140   163.111
2031.87     86.290   158.390
2061.43     86.115   154.388
2091.41     85.885   152.169
2121.83     85.799   150.992
2152.69     85.881   149.143
2184.01     85.899   147.416
2215.77     86.045   146.573
2248.00     86.390   144.061
2280.70     86.499   140.551
2313.87     86.499   137.991
2347.53     86.551   135.911
2381.68     86.685   134.136
2416.32     86.971   131.850
2451.46     87.198   128.363
2487.12     87.299   124.971
2523.30     87.396   122.051
2560.00     87.466   119.443
2597.24     87.647   116.396
2635.01     87.811   113.478
2673.34     88.016   110.227
2712.23     88.218   106.913
2751.68     88.399   102.787
2791.70     88.500    99.169
2832.31     88.651    95.412
2873.50     88.780    91.796
2915.30     88.899    87.401
2957.70     88.946    83.405
3000.72     88.960    78.924
3044.37     88.824    75.304
3088.65     88.723    72.198
3133.58     88.819    69.799
3179.16     88.960    66.492
3225.40     89.085    62.454
3272.31     89.000    58.597
3319.91     89.123    55.425
3368.20     89.137    51.759
3417.19     89.249    48.225
3466.89     89.299    43.570
3517.32     89.223    39.692
3568.48     89.199    36.185
3620.39     89.190    32.920
3673.05     89.299    28.609
3726.47     89.151    24.000
3780.67     88.919    20.686
3835.67     88.922    18.231
3891.46     88.980    14.101
3948.06     88.720    10.074
4005.49     88.599     7.583
4063.75     88.583     4.775
4122.86     88.530     1.255
4182.82     88.399    -1.611
4243.66     88.399    -4.917
4305.39     88.288    -8.425
4368.01     88.117   -11.492
4431.55     87.999   -14.161
4496.01     88.059   -17.567
4561.40     87.883   -21.909
4627.75     87.583   -24.718
4695.06     87.402   -26.691
4763.35     87.359   -29.201
4832.64     87.299   -31.876
4902.93     87.236   -35.048
4974.24     87.043   -37.936
5046.60     86.999   -40.513
5120.00     86.880   -44.236
5194.47     86.573   -47.032
5270.03     86.499   -49.030
5346.68     86.366   -52.585
5424.45     86.005   -55.321
5503.35     85.799   -56.636
5583.40     85.735   -58.935
5664.61     85.366   -61.193
5747.01     85.199   -61.767
5830.60     85.099   -63.161
5915.41     85.039   -63.434
6001.45     85.214   -64.976
6088.74     85.336   -66.617
6177.30     85.625   -69.247
6267.15     85.699   -73.185
6358.31     85.735   -76.231
6450.80     85.799   -79.054
6544.62     85.882   -82.051
6639.82     85.971   -85.021
6736.40     86.116   -88.789
6834.38     86.272   -93.126
6933.79     86.299   -98.295
7034.64     86.237  -103.039
7136.96     86.021  -107.411
7240.77     85.882  -111.268
7346.09     85.684  -115.412
7452.94     85.514  -118.967
7561.35     85.287  -122.853
7671.33     85.050  -126.510
7782.91     84.768  -130.321
7896.12     84.374  -133.389
8010.97     84.005  -136.103
8127.49     83.664  -137.919
8245.71     83.459  -139.296
8365.65     83.327  -140.348
8487.33     83.335  -141.692
8610.78     83.453  -143.387
8736.03     83.704  -145.704
8863.09     83.932  -149.016
8992.01     84.175  -153.593
9122.80     84.222  -159.395
9255.50     84.108  -165.467
9390.12     83.699  -170.321
9526.70     83.281  -174.406
9665.27     82.841  -177.382
9805.86     82.416   179.986
9948.49     82.040   177.858
10093.2     81.650   176.411
10240.0     81.278   175.498
10388.9     81.037   175.285
10540.1     80.956   175.328
10693.4     81.211   174.238
10848.9     81.299   170.957
11006.7     81.198   167.824
11166.8     81.029   165.677
11329.2     80.972   163.816
11494.0     80.947   161.138
11661.2     80.799   158.254
11830.8     80.509   156.709
12002.9     80.343   156.894
12177.5     80.531   157.586
12354.6     81.028   157.126
12534.3     81.585   154.667
12716.6     82.119   151.007
12901.6     82.668   146.005
13089.2     83.140   139.258
13279.6     83.384   131.457
13472.8     83.499   123.870
13668.8     83.574   116.413
13867.6     83.599   107.970
14069.3     83.463    98.789
14273.9     83.102    90.075
14481.5     82.632    81.766
14692.2     82.008    73.761
14905.9     81.240    67.205
15122.7     80.585    62.370
15342.7     80.178    57.003
15565.8     79.654    51.031
15792.2     79.041    46.041
16021.9     78.527    41.599
16255.0     78.068    36.648
16491.4     77.524    32.026
16731.3     77.039    28.069
16974.7     76.602    23.745
17221.6     76.138    19.180
17472.1     75.616    14.939
17726.2     75.122    10.071
17984.0     74.351     4.958
18245.6     73.296     1.218
18511.0     72.247    -0.572
18780.2     71.206    -0.171
19053.4     70.433     2.227
19330.5     70.073     4.487
19611.7     69.908     6.033
19897.0     69.899     7.513
20186.4     69.673     2.887
20480.0     69.447    -1.738
20777.9     69.221    -6.363
21080.1     68.995   -10.989
21386.7     68.768   -15.614
21697.8     68.542   -20.239
22013.4     68.316   -24.865
22333.6     68.090   -29.490
22658.4     67.864   -34.117
22988.0     67.638   -38.741
23322.4     67.412   -43.366
23661.6     67.186   -47.992
24005.8     66.960   -52.617
24355.0     66.734   -57.242
24709.2     66.507   -61.868
25068.6     66.281   -66.493
25433.2     66.055   -71.120
25803.2     65.829   -75.744
26178.5     65.603   -80.369
26559.3     65.377   -84.995
26945.6     65.151   -89.620
27337.5     64.925   -94.246
27735.2     64.699   -98.870
28138.6     64.473  -103.496
28547.9     64.246  -108.122
28963.1     64.020  -112.747
29384.4     63.794  -117.373
29811.8     63.568  -121.998
30245.4     63.342  -126.623
30685.3     63.116  -131.249
31131.7     62.890  -135.874
31584.5     62.664  -140.499
32043.9     62.438  -145.125
32510.0     62.211  -149.750
32982.8     61.985  -154.376
33462.6     61.759  -159.001
33949.3     61.533  -163.626
34443.1     61.307  -168.252
34944.1     61.081  -172.877
35452.4     60.855  -177.502
35968.0     60.629   177.872
36491.2     60.403   173.247
37022.0     60.177   168.621
37560.5     59.950   163.996
38106.8     59.724   159.371
38661.1     59.498   154.745
39223.4     59.272   150.120
39793.9     59.046   145.494
