"Horizontal Reflections"
"Front"		"Side"		"Rear"		"Total Horizontal Reflection"
"Frequency [Hz]"	"Sound Pessure Level [dB]  / [2.83V 1m] "	"Frequency [Hz]"	"Sound Pessure Level [dB]  / [2.83V 1m] "	"Frequency [Hz]"	"Sound Pessure Level [dB]  / [2.83V 1m] "	"Frequency [Hz]"	"Sound Pessure Level [dB]  / [2.83V 1m] "
20.5078	71.9647	20.5078	71.7551	20.5078	71.2665	20.5078	71.5481
21.9727	75.0219	21.9727	74.7612	21.9727	74.0945	21.9727	74.4782
23.4375	77.3907	23.4375	77.1318	23.4375	76.4793	23.4375	76.8553
24.9023	79.126	24.9023	78.83	24.9023	78.1111	24.9023	78.5298
26.3672	80.6123	26.3672	80.2922	26.3672	79.4764	26.3672	79.9512
27.832	81.4686	27.832	81.1424	27.832	80.3135	27.832	80.7966
29.2969	81.9883	29.2969	81.6563	29.2969	80.8232	29.2969	81.3098
30.7617	82.3191	30.7617	81.9895	30.7617	81.1597	30.7617	81.644
32.2266	82.5537	32.2266	82.236	32.2266	81.4828	32.2266	81.9242
33.6914	82.7598	33.6914	82.4434	33.6914	81.7051	33.6914	82.1384
35.1562	82.8094	35.1562	82.4696	35.1562	81.6491	35.1562	82.1309
36.6211	82.9891	36.6211	82.6475	36.6211	81.8596	36.6211	82.3246
38.0859	83.1946	38.0859	82.8421	38.0859	82.0469	38.0859	82.5182
39.5508	83.4533	39.5508	83.0995	39.5508	82.3021	39.5508	82.7749
41.0156	83.6146	41.0156	83.2446	41.0156	82.4187	41.0156	82.9102
42.4805	83.9512	42.4805	83.5801	42.4805	82.7555	42.4805	83.2465
43.9453	84.131	43.9453	83.7442	43.9453	82.8708	43.9453	83.3913
45.4102	84.4424	45.4102	84.0572	45.4102	83.1951	45.4102	83.7093
46.875	84.744	46.875	84.3645	46.875	83.5308	46.875	84.0286
48.3398	85.01	48.3398	84.626	48.3398	83.8077	48.3398	84.2984
51.2695	85.5275	51.2695	85.1205	51.2695	84.2506	51.2695	84.7739
52.7344	85.7534	52.7344	85.3447	52.7344	84.4656	52.7344	84.9942
54.1992	86.0356	54.1992	85.6171	54.1992	84.7191	54.1992	85.2601
55.6641	86.3129	55.6641	85.8988	55.6641	85.0419	55.6641	85.56
58.5938	86.7271	58.5938	86.3141	58.5938	85.5012	58.5938	85.9957
60.0586	86.9293	60.0586	86.5198	60.0586	85.7125	60.0586	86.2032
62.9883	87.3212	62.9883	86.8947	62.9883	86.076	62.9883	86.5766
64.4531	87.479	64.4531	87.0417	64.4531	86.2169	64.4531	86.7233
67.3828	87.8816	67.3828	87.4162	67.3828	86.5598	67.3828	87.0895
68.8477	88.0788	68.8477	87.6004	68.8477	86.7393	68.8477	87.2746
71.7773	88.4541	71.7773	87.9448	71.7773	87.0077	71.7773	87.591
74.707	88.8139	74.707	88.2951	74.707	87.3492	74.707	87.9394
77.6367	89.1704	77.6367	88.6476	77.6367	87.7454	77.6367	88.3131
79.1016	89.3095	79.1016	88.773	79.1016	87.8742	79.1016	88.4434
82.0312	89.535	82.0312	88.9592	82.0312	88.024	82.0312	88.6221
84.9609	89.8279	84.9609	89.2067	84.9609	88.1262	84.9609	88.8145
87.8906	89.7057	87.8906	89.1224	87.8906	88.2088	87.8906	88.7971
90.8203	89.8307	90.8203	89.2356	90.8203	88.4022	90.8203	88.9502
95.2148	90.248	95.2148	89.5312	95.2148	88.3279	95.2148	89.1081
98.1445	89.9673	98.1445	89.2578	98.1445	88.1112	98.1445	88.858
101.074	89.7902	101.074	89.0663	101.074	88.0053	101.074	88.7083
105.469	90.1752	105.469	89.3083	105.469	88.0044	105.469	88.8799
108.398	90.3972	108.398	89.5331	108.398	88.0654	108.398	89.0341
112.793	90.5459	112.793	89.6362	112.793	88.1159	112.793	89.1273
117.188	90.407	117.188	89.4835	117.188	87.8613	117.188	88.9361
120.117	90.4203	120.117	89.5061	120.117	87.894	120.117	88.9603
124.512	90.366	124.512	89.4703	124.512	87.9946	124.512	88.9764
128.906	90.2609	128.906	89.339	128.906	87.9332	128.906	88.8816
133.301	90.175	133.301	89.1811	133.301	87.8323	133.301	88.7672
139.16	89.9802	139.16	88.9126	139.16	87.3649	139.16	88.4355
143.555	89.7226	143.555	88.6115	143.555	86.9874	143.555	88.1153
147.949	89.592	147.949	88.3867	147.949	86.7003	147.949	87.8921
153.809	89.9876	153.809	88.6253	153.809	86.2048	153.809	87.8997
159.668	90.1752	159.668	88.8363	159.668	86.4213	159.668	88.1054
165.527	90.4777	165.527	89.0755	165.527	86.2455	165.527	88.221
171.387	90.2228	171.387	88.9256	171.387	86.1055	171.387	88.0404
177.246	89.546	177.246	88.4023	177.246	86.3202	177.246	87.735
183.105	89.502	183.105	88.1568	183.105	86.211	183.105	87.6017
188.965	90.0117	188.965	88.5183	188.965	85.7897	188.965	87.7279
196.289	90.6372	196.289	89.0535	196.289	85.8039	196.289	88.1251
203.613	89.9054	203.613	88.5477	203.613	85.3575	203.613	87.561
210.938	89.2155	210.938	87.7805	210.938	84.8192	210.938	86.8934
218.262	89.1887	218.262	87.8476	218.262	84.1748	218.262	86.7076
225.586	89.3202	225.586	87.878	225.586	85.186	225.586	87.0832
232.91	89.6979	232.91	88.0547	232.91	84.7016	232.91	87.1154
241.699	90.0211	241.699	88.4093	241.699	84.9119	241.699	87.4157
250.488	89.5859	250.488	88.1695	250.488	84.8729	250.488	87.1691
259.277	90.8593	259.277	88.9174	259.277	84.6982	259.277	87.8474
268.066	90.2832	268.066	88.7537	268.066	84.8001	268.066	87.5998
276.855	89.5032	276.855	88.2853	276.855	84.5465	276.855	87.0837
287.109	89.7586	287.109	88.2534	287.109	84.5047	287.109	87.1486
297.363	89.8161	297.363	87.7072	297.363	83.9481	297.363	86.8234
307.617	89.7891	307.617	88.0383	307.617	82.9044	307.617	86.6751
319.336	89.162	319.336	87.5306	319.336	83.1848	319.336	86.3095
329.59	88.8856	329.59	87.404	329.59	82.6788	329.59	86.0317
341.309	88.8382	341.309	87.2968	341.309	83.1283	341.309	86.0888
353.027	89.0999	353.027	87.4457	353.027	81.9258	353.027	85.961
366.211	88.9318	366.211	86.9674	366.211	82.0304	366.211	85.734
379.395	88.7687	379.395	86.7865	379.395	81.6211	379.395	85.5101
392.578	87.9277	392.578	86.3527	392.578	81.6812	392.578	85.0287
405.762	87.9902	405.762	85.6554	405.762	81.6357	405.762	84.7925
420.41	88.3389	420.41	85.9421	420.41	79.5733	420.41	84.618
435.059	88.157	435.059	86.2894	435.059	81.0403	435.059	84.9481
451.172	88.8881	451.172	86.9752	451.172	82.4073	451.172	85.8072
465.82	88.8968	465.82	86.2228	465.82	82.0319	465.82	85.4592
483.398	88.8191	483.398	86.0235	483.398	81.0491	483.398	85.1393
499.512	88.6895	499.512	85.6108	499.512	80.0535	499.512	84.747
517.09	88.2758	517.09	85.9426	517.09	80.4784	517.09	84.7536
536.133	89.4285	536.133	86.7901	536.133	80.5272	536.133	85.5956
555.176	89.5839	555.176	86.3657	555.176	81.6232	555.176	85.7249
574.219	89.5061	574.219	86.5221	574.219	79.9617	574.219	85.4477
594.727	89.7144	594.727	85.8688	594.727	80.8762	594.727	85.4893
615.234	89.0061	615.234	86.2272	615.234	78.2403	615.234	84.8627
637.207	89.5037	637.207	86.1372	637.207	80.2224	637.207	85.3546
659.18	89.4319	659.18	86.2534	659.18	78.5723	659.18	85.1298
682.617	89.1019	682.617	85.28	682.617	79.5594	682.617	84.7639
707.52	88.4235	707.52	85.1515	707.52	78.4216	707.52	84.198
732.422	88.9955	732.422	85.3415	732.422	77.4416	732.422	84.4498
757.324	89.9783	757.324	86.1385	757.324	79.1337	757.324	85.4516
785.156	90.2428	785.156	85.6907	785.156	79.6917	785.156	85.5361
811.523	88.9059	811.523	85.8391	811.523	77.7379	811.523	84.6098
840.82	90.477	840.82	86.1855	840.82	78.5538	840.82	85.6851
870.117	89.2426	870.117	85.9442	870.117	78.448	870.117	84.9055
900.879	89.4704	900.879	85.2586	900.879	78.4333	900.879	84.8022
933.105	88.7875	933.105	84.3437	933.105	75.6416	933.105	83.8372
965.332	88.1891	965.332	85.0718	965.332	76.8189	965.332	83.8529
1,000.49	88.9314	1,000.49	84.4162	1,000.49	77.4252	1,000.49	84.1162
1,035.64	88.4627	1,035.64	83.8529	1,035.64	76.2631	1,035.64	83.546
1,072.27	87.5859	1,072.27	84.3351	1,072.27	75.1233	1,072.27	83.0978
1,108.89	87.8834	1,108.89	84.3978	1,108.89	77.5498	1,108.89	83.5396
1,148.44	88.056	1,148.44	83.4933	1,148.44	76.2908	1,148.44	83.198
1,189.45	88.6927	1,189.45	84.3393	1,189.45	75.4421	1,189.45	83.7626
1,230.47	87.8482	1,230.47	84.6772	1,230.47	77.0412	1,230.47	83.555
1,274.41	88.47	1,274.41	85.4116	1,274.41	77.2355	1,274.41	84.1698
1,319.82	88.9555	1,319.82	86.3671	1,319.82	77.7199	1,319.82	84.835
1,366.7	89.7949	1,366.7	87.1409	1,366.7	78.6564	1,366.7	85.6587
1,413.57	89.5019	1,413.57	87.2146	1,413.57	78.2819	1,413.57	85.5045
1,463.38	89.3864	1,463.38	86.9329	1,463.38	77.726	1,463.38	85.2785
1,516.11	88.1485	1,516.11	86.3691	1,516.11	76.7142	1,516.11	84.3475
1,568.85	87.4449	1,568.85	85.8208	1,568.85	76.4371	1,568.85	83.7533
1,624.51	87.6307	1,624.51	86.2035	1,624.51	75.7649	1,624.51	83.9529
1,681.64	88.859	1,681.64	86.9592	1,681.64	76.7439	1,681.64	84.9467
1,741.7	89.8623	1,741.7	87.5866	1,741.7	76.8006	1,741.7	85.717
1,803.22	90.2743	1,803.22	88.1196	1,803.22	76.3578	1,803.22	86.1289
1,866.21	89.8705	1,866.21	87.4411	1,866.21	75.8178	1,866.21	85.5989
1,932.13	89.2824	1,932.13	86.7491	1,932.13	74.7907	1,932.13	84.9435
1,999.51	89.3248	1,999.51	86.7657	1,999.51	75.2813	1,999.51	84.9991
2,069.82	89.9382	2,069.82	87.0305	2,069.82	75.0281	2,069.82	85.4244
2,143.07	90.2431	2,143.07	87.3925	2,143.07	75.0078	2,143.07	85.7374
2,219.24	89.9028	2,219.24	86.7914	2,219.24	74.7819	2,219.24	85.2982
2,296.88	88.4565	2,296.88	85.6188	2,296.88	73.6834	2,296.88	83.9777
2,378.91	88.8276	2,378.91	85.8649	2,378.91	73.7311	2,378.91	84.283
2,462.4	89.9364	2,462.4	86.8284	2,462.4	74.927	2,462.4	85.3384
2,548.83	90.2884	2,548.83	87.3257	2,548.83	74.7662	2,548.83	85.7249
2,639.65	89.1072	2,639.65	86.495	2,639.65	73.9704	2,639.65	84.7043
2,731.93	88.2675	2,731.93	85.1663	2,731.93	72.3306	2,731.93	83.6319
2,828.61	87.3662	2,828.61	85.4475	2,828.61	73.0259	2,828.61	83.3041
2,928.22	88.4921	2,928.22	86.0491	2,928.22	73.3634	2,928.22	84.1614
3,030.76	88.8054	3,030.76	86.5719	3,030.76	73.2811	3,030.76	84.5495
3,137.7	87.7998	3,137.7	86.4045	3,137.7	73.0943	3,137.7	83.9672
3,249.02	87.7486	3,249.02	85.1796	3,249.02	71.7535	3,249.02	83.3292
3,363.28	86.8849	3,363.28	84.8441	3,363.28	71.0765	3,363.28	82.7047
3,481.93	87.8103	3,481.93	85.218	3,481.93	70.5658	3,481.93	83.3409
3,604.98	87.3296	3,604.98	85.0864	3,604.98	71.9819	3,604.98	83.0765
3,732.42	88.5116	3,732.42	85.2175	3,732.42	71.8576	3,732.42	83.7744
3,864.26	88.0071	3,864.26	85.0689	3,864.26	72.4145	3,864.26	83.4505
4,000.49	87.9909	4,000.49	84.9635	4,000.49	71.2751	4,000.49	83.3569
4,141.11	88.0083	4,141.11	84.9342	4,141.11	71.7584	4,141.11	83.3717
4,287.6	88.8928	4,287.6	85.6118	4,287.6	70.8662	4,287.6	84.1205
4,438.48	88.7674	4,438.48	84.9076	4,438.48	70.5744	4,438.48	83.7733
4,595.21	88.0616	4,595.21	84.1729	4,595.21	70.851	4,595.21	83.0849
4,756.35	89.1066	4,756.35	84.9436	4,756.35	69.7396	4,756.35	83.9789
4,924.8	88.7341	4,924.8	84.4304	4,924.8	70.556	4,924.8	83.5855
5,097.66	88.9811	5,097.66	84.6615	5,097.66	70.4293	5,097.66	83.8177
5,277.83	88.6431	5,277.83	84.465	5,277.83	69.7657	5,277.83	83.5205
5,463.87	89.0964	5,463.87	84.9888	5,463.87	69.2442	5,463.87	83.9788
5,657.23	88.8091	5,657.23	84.5858	5,657.23	69.0092	5,657.23	83.6523
5,856.45	88.5027	5,856.45	84.065	5,856.45	69.0079	5,856.45	83.2791
6,062.99	89.1391	6,062.99	84.3141	6,062.99	68.3861	6,062.99	83.7681
6,276.86	88.6228	6,276.86	83.5971	6,276.86	66.4549	6,276.86	83.1708
6,498.05	88.3591	6,498.05	83.2977	6,498.05	66.4289	6,498.05	82.899
6,726.56	88.7717	6,726.56	83.5446	6,726.56	67.4766	6,726.56	83.27
6,963.87	87.8233	6,963.87	83.0828	6,963.87	66.7569	6,963.87	82.4745
7,209.96	88.4096	7,209.96	83.7105	7,209.96	66.6098	7,209.96	83.0645
7,464.84	88.0119	7,464.84	83.5671	7,464.84	67.012	7,464.84	82.7607
7,727.05	88.0943	7,727.05	83.5233	7,727.05	65.23	7,727.05	82.7798
7,999.51	87.997	7,999.51	83.2058	7,999.51	65.2741	7,999.51	82.6124
8,282.23	87.8965	8,282.23	82.8158	8,282.23	65.6568	8,282.23	82.4269
8,573.73	87.7628	8,573.73	82.4427	8,573.73	63.6278	8,573.73	82.2045
8,876.95	87.4607	8,876.95	81.8958	8,876.95	64.2666	8,876.95	81.8398
9,188.96	87.4782	9,188.96	81.6966	9,188.96	63.5784	9,188.96	81.7914
9,514.16	87.6533	9,514.16	81.4995	9,514.16	63.3238	9,514.16	81.8651
9,849.61	87.6891	9,849.61	81.1666	9,849.61	63.4604	9,849.61	81.8104
10,196.8	87.8615	10,196.8	81.1639	10,196.8	63.4895	10,196.8	81.9404
10,555.7	87.8186	10,555.7	80.7903	10,555.7	64.2391	10,555.7	81.8296
10,927.7	87.9321	10,927.7	80.834	10,927.7	64.2518	10,927.7	81.927
11,313	87.8182	11,313	80.7164	11,313	62.9465	11,313	81.8028
11,712.9	87.7555	11,712.9	80.5933	11,712.9	63.6228	11,712.9	81.7327
12,126	87.7278	12,126	80.3471	12,126	62.9532	12,126	81.6543
12,553.7	87.5343	12,553.7	79.8496	12,553.7	62.3379	12,553.7	81.3972
12,996.1	87.3141	12,996.1	79.4467	12,996.1	63.142	12,996.1	81.1497
13,454.6	87.0505	13,454.6	79.0203	13,454.6	62.6874	13,454.6	80.8543
13,929.2	86.7343	13,929.2	78.822	13,929.2	62.8272	13,929.2	80.5637
14,419.9	86.5132	14,419.9	78.5322	14,419.9	62.4142	14,419.9	80.3282
14,928.2	86.0421	14,928.2	78.0948	14,928.2	61.3089	14,928.2	79.8584
15,455.6	85.6305	15,455.6	77.3248	15,455.6	60.5533	15,455.6	79.3801
16,000.5	85.2288	16,000.5	76.2038	16,000.5	60.04	16,000.5	78.8614
16,564.5	84.8006	16,564.5	74.7943	16,564.5	58.806	16,564.5	78.2935
17,148.9	84.6042	17,148.9	73.8863	17,148.9	58.5438	17,148.9	78.0145
17,752.4	84.2551	17,752.4	71.7271	17,752.4	57.4296	17,752.4	77.4992
18,379.4	83.564	18,379.4	69.8189	18,379.4	57.4693	18,379.4	76.7336
19,026.9	82.89	19,026.9	68.4746	19,026.9	56.5529	19,026.9	76.0228
19,697.8	82.0467	19,697.8	67.8656	19,697.8	55.7255	19,697.8	75.1913
19,999.5	81.7339	19,999.5	67.2907	19,999.5	56.7349	19,999.5	74.8746
