Freq[Hz]     dBSPL  Phase[Deg]
5.00000     58.090   -79.909
5.07273     58.039   -80.641
5.14651     57.987   -81.384
5.22137     57.935   -82.137
5.29732     57.884   -82.902
5.37437     57.832   -83.677
5.45254     57.780   -84.464
5.53185     57.728   -85.263
5.61231     57.677   -86.073
5.69394     57.625   -86.894
5.77676     57.573   -87.728
5.86079     57.522   -88.574
5.94604     57.470   -89.432
6.03252     57.418   -90.302
6.12027     57.367   -91.186
6.20929     57.315   -92.082
6.29961     57.263   -92.991
6.39124     57.212   -93.913
6.48420     57.160   -94.849
6.57851     57.108   -95.799
6.67420     57.056   -96.762
6.77128     57.005   -97.739
6.86977     56.953   -98.730
6.96969     56.901   -99.736
7.07107     56.850  -100.757
7.17392     56.798  -101.792
7.27827     56.746  -102.842
7.38413     56.695  -103.908
7.49154     56.643  -104.989
7.60050     56.591  -106.086
7.71105     56.540  -107.199
7.82321     56.488  -108.328
7.93701     56.436  -109.473
8.05245     56.384  -110.636
8.16958     56.333  -111.815
8.28841     56.281  -113.011
8.40896     56.229  -114.224
8.53128     56.178  -115.456
8.65537     56.126  -116.705
8.78126     56.074  -117.972
8.90899     56.023  -119.258
9.03857     55.971  -120.562
9.17004     55.919  -121.886
9.30342     55.867  -123.228
9.43874     55.816  -124.590
9.57603     55.764  -125.972
9.71532     55.712  -127.374
9.85663     55.661  -128.797
10.0000     55.609  -130.240
10.1455     55.673  -131.423
10.2930     55.711  -132.633
10.4427     55.678  -133.921
10.5946     55.645  -135.209
10.7487     55.604  -136.577
10.9051     55.562  -137.962
11.0637     55.513  -139.390
11.2246     55.459  -140.865
11.3879     55.401  -142.357
11.5535     55.334  -143.915
11.7216     55.266  -145.473
11.8921     55.182  -147.106
12.0650     55.099  -148.739
12.2405     55.000  -150.432
12.4186     54.899  -152.132
12.5992     54.782  -153.882
12.7825     54.662  -155.642
12.9684     54.523  -157.443
13.1570     54.379  -159.253
13.3484     54.214  -161.096
13.5426     54.046  -162.945
13.7395     53.851  -164.820
13.9394     53.651  -166.696
14.1421     53.423  -168.582
14.3478     53.184  -170.464
14.5565     52.921  -172.340
14.7683     52.635  -174.196
14.9831     52.331  -176.037
15.2010     51.990  -177.821
15.4221     51.633  -179.573
15.6464     51.236   178.764
15.8740     50.806   177.196
16.1049     50.352   175.703
16.3392     49.838   174.452
16.5768     49.294   173.358
16.8179     48.709   172.480
17.0626     48.059   172.066
17.3107     47.372   172.009
17.5625     46.642   172.405
17.8180     45.858   173.793
18.0771     45.061   175.979
18.3401     44.265   179.066
18.6068     43.532  -176.270
18.8775     42.957  -170.294
19.1521     42.581  -163.441
19.4306     42.455  -155.972
19.7133     42.706  -148.761
20.0000     43.204  -142.666
20.2909     43.853  -137.829
20.5860     44.594  -134.351
20.8855     45.368  -132.195
21.1893     46.120  -131.390
21.4975     46.825  -131.492
21.8102     47.476  -132.324
22.1274     48.068  -133.773
22.4492     48.598  -135.745
22.7758     49.066  -138.162
23.1071     49.472  -140.967
23.4432     49.817  -144.115
23.7841     50.097  -147.591
24.1301     50.318  -151.356
24.4811     50.479  -155.393
24.8372     50.580  -159.698
25.1984     50.621  -164.276
25.5649     50.599  -169.137
25.9368     50.514  -174.302
26.3141     50.360  -179.798
26.6968     50.137   174.334
27.0851     49.840   168.036
27.4791     49.464   161.216
27.8788     49.005   153.750
28.2843     48.468   145.511
28.6957     47.856   136.309
29.1131     47.186   125.910
29.5365     46.492   114.046
29.9661     45.835   100.472
30.4020     45.309    85.073
30.8442     45.071    68.007
31.2929     45.180    50.333
31.7480     45.632    33.064
32.2098     46.343    16.991
32.6783     47.206     2.691
33.1536     48.096   -10.092
33.6359     48.948   -21.644
34.1251     49.718   -32.138
34.6215     50.383   -41.856
35.1250     50.942   -51.044
35.6359     51.372   -59.779
36.1543     51.683   -68.217
36.6802     51.864   -76.429
37.2137     51.902   -84.460
37.7550     51.800   -92.367
38.3041     51.526  -100.161
38.8613     51.079  -107.864
39.4265     50.405  -115.463
40.0000     49.474  -122.938
40.5818     48.200  -130.224
41.1721     46.432  -137.153
41.7710     43.972  -143.409
42.3785     40.071  -147.526
42.9949     32.417  -137.950
43.6203     28.396   -36.192
44.2548     38.305   -13.084
44.8985     42.957   -15.430
45.5515     45.838   -20.857
46.2141     47.812   -27.108
46.8863     49.215   -33.561
47.5683     50.197   -39.925
48.2602     50.862   -46.007
48.9621     51.266   -51.634
49.6743     51.455   -56.625
50.3968     51.466   -60.779
51.1299     51.352   -63.900
51.8736     51.175   -65.844
52.6281     51.018   -66.618
53.3936     50.966   -66.494
54.1702     51.080   -66.041
54.9581     51.373   -66.012
55.7575     51.797   -67.077
56.5685     52.273   -69.585
57.3914     52.729   -73.646
58.2261     53.119   -79.239
59.0730     53.413   -86.410
59.9323     53.615   -95.091
60.8040     53.752  -105.375
61.6884     53.879  -117.498
62.5857     54.084  -131.423
63.4960     54.491  -147.082
64.4196     55.192  -163.825
65.3566     56.241   179.253
66.3073     57.572   163.026
67.2717     59.085   148.038
68.2502     60.659   134.328
69.2429     62.210   121.740
70.2501     63.679   110.081
71.2719     65.035    99.146
72.3086     66.259    88.801
73.3603     67.344    78.977
74.4274     68.286    69.653
75.5099     69.091    60.844
76.6083     69.764    52.592
77.7226     70.321    44.949
78.8531     70.779    37.962
80.0000     71.160    31.653
81.1636     71.489    26.007
82.3442     71.787    20.958
83.5419     72.071    16.407
84.7570     72.344    12.235
85.9899     72.606     8.354
87.2406     72.849     4.745
88.5096     73.067     1.451
89.7970     73.270    -1.445
91.1031     73.475    -3.882
92.4282     73.714    -5.898
93.7726     74.009    -7.665
95.1366     74.367    -9.447
96.5204     74.766   -11.488
97.9243     75.168   -13.887
99.3486     75.533   -16.561
100.794     75.839   -19.287
102.260     76.092   -21.807
103.747     76.324   -23.952
105.256     76.574   -25.741
106.787     76.869   -27.372
108.340     77.205   -29.096
109.916     77.553   -31.054
111.515     77.884   -33.194
113.137     78.185   -35.344
114.783     78.470   -37.361
116.452     78.761   -39.244
118.146     79.073   -41.112
119.865     79.393   -43.077
121.608     79.705   -45.118
123.377     80.008   -47.119
125.171     80.322   -49.030
126.992     80.670   -51.001
128.839     81.044   -53.300
130.713     81.393   -56.048
132.615     81.670   -59.055
134.543     81.866   -61.952
136.500     82.030   -64.441
138.486     82.194   -66.304
140.500     82.412   -68.288
142.544     82.654   -70.591
144.617     82.850   -72.642
146.721     83.039   -74.380
148.855     83.303   -76.024
151.020     83.651   -77.899
153.217     84.021   -80.464
155.445     84.323   -83.629
157.706     84.515   -86.896
160.000     84.634   -90.036
162.327     84.737   -92.653
164.688     84.855   -94.804
167.084     84.997   -97.155
169.514     85.132   -99.687
171.980     85.254  -101.962
174.481     85.400  -103.806
177.019     85.607  -105.777
179.594     85.841  -108.501
182.206     85.988  -111.924
184.856     86.011  -114.977
187.545     86.022  -117.033
190.273     86.119  -119.008
193.041     86.243  -121.336
195.849     86.317  -123.729
198.697     86.400  -125.989
201.587     86.531  -128.469
204.520     86.597  -131.438
207.494     86.550  -134.035
210.512     86.531  -136.000
213.574     86.595  -138.139
216.681     86.601  -140.503
219.833     86.549  -142.480
223.030     86.591  -144.256
226.274     86.653  -146.847
229.565     86.544  -149.501
232.905     86.398  -150.877
236.292     86.427  -151.840
239.729     86.517  -153.946
243.216     86.456  -156.400
246.754     86.330  -157.943
250.343     86.298  -159.146
253.984     86.300  -160.710
257.678     86.265  -162.055
261.426     86.253  -163.251
265.229     86.210  -164.459
269.087     86.144  -165.107
273.001     86.133  -165.627
276.972     86.076  -166.199
281.000     86.021  -166.132
285.088     86.081  -166.386
289.234     86.058  -167.253
293.441     85.951  -167.301
297.709     85.943  -167.133
302.040     85.920  -167.493
306.433     85.837  -167.483
310.890     85.807  -167.528
315.412     85.734  -167.641
320.000     85.691  -167.484
324.655     85.659  -167.704
329.377     85.592  -167.730
334.168     85.553  -167.929
339.028     85.494  -168.165
343.959     85.456  -168.420
348.962     85.416  -168.826
354.038     85.381  -169.283
359.188     85.355  -169.882
364.412     85.338  -170.486
369.713     85.329  -171.053
375.090     85.330  -171.594
380.546     85.340  -172.136
386.081     85.359  -172.668
391.697     85.387  -173.219
397.394     85.425  -173.796
403.175     85.468  -174.370
409.039     85.518  -174.984
414.989     85.574  -175.644
421.025     85.635  -176.335
427.149     85.697  -177.057
433.362     85.761  -177.810
439.665     85.829  -178.639
446.060     85.897  -179.498
452.548     85.962   179.619
459.131     86.027   178.690
465.809     86.091   177.719
472.584     86.152   176.737
479.458     86.211   175.751
486.432     86.269   174.738
493.507     86.326   173.704
500.686     86.383   172.651
507.968     86.439   171.609
515.357     86.495   170.579
522.853     86.552   169.534
530.458     86.613   168.472
538.174     86.676   167.413
546.002     86.741   166.352
553.943     86.811   165.256
562.001     86.885   164.116
570.175     86.965   162.922
578.469     87.047   161.665
586.883     87.131   160.363
595.419     87.214   159.010
604.080     87.296   157.573
612.866     87.374   156.048
621.780     87.446   154.434
630.824     87.510   152.732
640.000     87.562   150.985
649.309     87.601   149.203
658.753     87.626   147.364
668.335     87.634   145.446
678.056     87.626   143.541
687.919     87.600   141.633
697.925     87.556   139.744
708.077     87.496   137.931
718.376     87.421   136.180
728.825     87.333   134.515
739.426     87.235   132.952
750.181     87.131   131.506
761.093     87.025   130.184
772.163     86.925   129.005
783.394     86.832   127.937
794.789     86.750   126.949
806.349     86.683   126.050
818.078     86.634   125.196
829.977     86.600   124.362
842.050     86.583   123.522
854.298     86.580   122.660
866.724     86.588   121.780
879.330     86.608   120.851
892.120     86.637   119.889
905.097     86.676   118.897
918.262     86.726   117.874
931.618     86.791   116.812
945.169     86.871   115.687
958.917     86.969   114.466
972.864     87.083   113.105
987.015     87.209   111.554
1001.37     87.343   109.747
1015.94     87.471   107.676
1030.71     87.581   105.366
1045.71     87.659   102.786
1060.92     87.693    99.991
1076.35     87.670    97.144
1092.00     87.583    94.342
1107.89     87.430    91.720
1124.00     87.220    89.503
1140.35     86.976    87.888
1156.94     86.734    87.020
1173.77     86.555    86.951
1190.84     86.503    87.505
1208.16     86.625    88.254
1225.73     86.933    88.631
1243.56     87.388    88.100
1261.65     87.917    86.355
1280.00     88.444    83.369
1298.62     88.907    79.290
1317.51     89.267    74.313
1336.67     89.497    68.695
1356.11     89.581    62.771
1375.84     89.515    56.763
1395.85     89.306    50.947
1416.15     88.975    45.635
1436.75     88.557    41.033
1457.65     88.091    37.228
1478.85     87.630    34.203
1500.36     87.219    31.795
1522.19     86.869    29.675
1544.33     86.564    27.571
1566.79     86.262    25.399
1589.58     85.924    23.334
1612.70     85.546    21.771
1636.16     85.174    21.102
1659.95     84.909    21.449
1684.10     84.868    22.341
1708.60     85.087    22.744
1733.45     85.480    21.676
1758.66     85.892    18.749
1784.24     86.169    14.271
1810.19     86.212     8.994
1836.52     85.979     3.791
1863.24     85.499    -0.208
1890.34     84.904    -1.910
1917.83     84.469    -0.879
1945.73     84.498     1.677
1974.03     85.053     3.135
2002.74     85.871     1.597
2031.87     86.626    -2.945
2061.43     87.125    -9.485
2091.41     87.294   -16.881
2121.83     87.131   -23.996
2152.69     86.717   -29.713
2184.01     86.208   -33.342
2215.77     85.839   -34.922
2248.00     85.797   -35.711
2280.70     86.048   -37.519
2313.87     86.383   -41.310
2347.53     86.584   -46.790
2381.68     86.529   -52.931
2416.32     86.211   -58.577
2451.46     85.727   -62.686
2487.12     85.272   -64.831
2523.30     85.048   -65.690
2560.00     85.103   -66.779
2597.24     85.292   -69.179
2635.01     85.429   -72.809
2673.34     85.424   -76.819
2712.23     85.321   -80.364
2751.68     85.243   -83.279
2791.70     85.264   -86.216
2832.31     85.311   -89.955
2873.50     85.221   -94.376
2915.30     84.915   -98.321
2957.70     84.517  -100.493
3000.72     84.313  -100.980
3044.37     84.415  -101.714
3088.65     84.592  -103.999
3133.58     84.615  -106.760
3179.16     84.608  -108.358
3225.40     84.882  -109.532
3272.31     85.363  -112.970
3319.91     85.572  -119.127
3368.20     85.204  -125.106
3417.19     84.520  -127.162
3466.89     84.272  -125.297
3517.32     84.686  -124.607
3568.48     85.151  -127.136
3620.39     85.405  -130.373
3673.05     85.697  -133.537
3726.47     85.982  -138.464
3780.67     85.811  -144.525
3835.67     85.140  -147.346
3891.46     84.820  -144.780
3948.06     85.422  -142.882
4005.49     86.198  -145.643
4063.75     86.700  -150.361
4122.86     87.061  -155.915
4182.82     87.092  -162.848
4243.66     86.514  -168.026
4305.39     85.987  -167.331
4368.01     86.408  -165.690
4431.55     87.071  -168.735
4496.01     87.438  -173.054
4561.40     87.833  -178.065
4627.75     87.834   174.297
4695.06     86.978   169.954
4763.35     86.712   173.836
4832.64     87.783   173.302
4902.93     88.317   165.716
4974.24     88.165   160.215
5046.60     88.174   156.349
5120.00     87.998   152.164
5194.47     87.995   151.192
5270.03     88.614   146.983
5346.68     88.482   138.715
5424.45     87.773   136.024
5503.35     87.792   135.933
5583.40     87.978   133.958
5664.61     88.471   131.302
5747.01     88.654   123.746
5830.60     87.911   120.503
5915.41     88.220   121.860
6001.45     88.752   116.100
6088.74     88.699   110.825
6177.30     88.578   104.990
6267.15     87.861   102.523
6358.31     88.111   103.675
6450.80     88.404    98.754
6544.62     88.254    95.674
6639.82     88.206    92.831
6736.40     88.256    91.985
6834.38     88.731    88.637
6933.79     88.799    84.148
7034.64     88.834    79.892
7136.96     88.578    77.427
7240.77     88.903    76.721
7346.09     89.317    73.870
7452.94     90.024    69.195
7561.35     90.207    61.647
7671.33     90.313    56.041
7782.91     90.118    49.762
7896.12     90.013    44.694
8010.97     89.524    39.812
8127.49     89.318    37.820
8245.71     89.322    36.866
8365.65     89.756    31.514
8487.33     89.373    27.249
8610.78     89.239    25.495
8736.03     89.696    24.959
8863.09     90.045    18.940
8992.01     90.334    15.561
9122.80     90.748     9.198
9255.50     90.757     0.627
9390.12     90.220    -5.065
9526.70     89.831    -7.579
9665.27     89.939    -9.459
9805.86     90.233   -12.547
9948.49     90.465   -18.154
10093.2     90.652   -23.497
10240.0     90.643   -28.941
10388.9     90.661   -33.760
10540.1     90.932   -38.066
10693.4     91.307   -45.314
10848.9     91.030   -54.300
11006.7     90.500   -58.507
11166.8     90.719   -61.250
11329.2     90.787   -66.853
11494.0     91.207   -71.151
11661.2     91.495   -82.060
11830.8     90.766   -88.262
12002.9     90.949   -92.055
12177.5     90.851   -98.407
12354.6     91.362  -103.666
12534.3     91.459  -115.795
12716.6     90.621  -123.307
12901.6     90.393  -126.358
13089.2     90.801  -132.692
13279.6     91.013  -142.419
13472.8     90.663  -155.131
13668.8     89.467  -162.479
13867.6     89.136  -164.390
14069.3     89.368  -170.167
14273.9     89.400  -179.240
14481.5     88.901   171.239
14692.2     88.405   168.725
14905.9     88.893   160.259
15122.7     88.760   151.780
15342.7     88.458   140.306
15565.8     87.811   137.466
15792.2     88.412   129.694
16021.9     88.892   120.331
16255.0     88.861   105.972
16491.4     88.427    92.610
16731.3     87.794    81.424
16974.7     86.770    71.811
17221.6     86.485    65.286
17472.1     86.479    58.845
17726.2     86.676    45.757
17984.0     86.499    31.179
18245.6     85.086    19.569
18511.0     84.779    12.704
18780.2     84.979     4.233
19053.4     84.900   -12.121
19330.5     84.057   -23.993
19611.7     83.822   -33.020
19897.0     83.985   -44.838
20186.4     83.833   -52.846
20480.0     83.681   -60.853
20777.9     83.528   -68.861
21080.1     83.376   -76.869
21386.7     83.224   -84.876
21697.8     83.072   -92.884
22013.4     82.920  -100.891
22333.6     82.767  -108.899
22658.4     82.615  -116.907
22988.0     82.463  -124.914
23322.4     82.311  -132.922
23661.6     82.159  -140.929
24005.8     82.007  -148.937
24355.0     81.854  -156.945
24709.2     81.702  -164.952
25068.6     81.550  -172.960
25433.2     81.398   179.033
25803.2     81.246   171.025
26178.5     81.093   163.017
26559.3     80.941   155.010
26945.6     80.789   147.002
27337.5     80.637   138.995
27735.2     80.485   130.987
28138.6     80.332   122.980
28547.9     80.180   114.972
28963.1     80.028   106.964
29384.4     79.876    98.957
29811.8     79.724    90.949
30245.4     79.572    82.942
30685.3     79.419    74.934
31131.7     79.267    66.926
31584.5     79.115    58.919
32043.9     78.963    50.911
32510.0     78.811    42.904
32982.8     78.658    34.896
33462.6     78.506    26.888
33949.3     78.354    18.881
34443.1     78.202    10.873
34944.1     78.050     2.866
35452.4     77.898    -5.142
35968.0     77.745   -13.150
36491.2     77.593   -21.157
37022.0     77.441   -29.165
37560.5     77.289   -37.172
38106.8     77.137   -45.180
38661.1     76.984   -53.188
39223.4     76.832   -61.195
39793.9     76.680   -69.203
