Freq[Hz]     dBSPL  Phase[Deg]
5.00000     45.913  -160.919
5.07273     45.826  -161.193
5.14651     45.738  -161.471
5.22137     45.651  -161.752
5.29732     45.564  -162.038
5.37437     45.477  -162.328
5.45254     45.390  -162.623
5.53185     45.303  -162.921
5.61231     45.216  -163.224
5.69394     45.129  -163.532
5.77676     45.042  -163.844
5.86079     44.954  -164.160
5.94604     44.867  -164.481
6.03252     44.780  -164.806
6.12027     44.693  -165.137
6.20929     44.606  -165.472
6.29961     44.519  -165.812
6.39124     44.432  -166.157
6.48420     44.345  -166.507
6.57851     44.258  -166.862
6.67420     44.170  -167.222
6.77128     44.083  -167.588
6.86977     43.996  -167.959
6.96969     43.909  -168.335
7.07107     43.822  -168.717
7.17392     43.735  -169.104
7.27827     43.648  -169.497
7.38413     43.561  -169.895
7.49154     43.474  -170.300
7.60050     43.387  -170.710
7.71105     43.299  -171.126
7.82321     43.212  -171.549
7.93701     43.125  -171.977
8.05245     43.038  -172.412
8.16958     42.951  -172.853
8.28841     42.864  -173.300
8.40896     42.777  -173.754
8.53128     42.690  -174.214
8.65537     42.603  -174.682
8.78126     42.515  -175.156
8.90899     42.428  -175.637
9.03857     42.341  -176.124
9.17004     42.254  -176.619
9.30342     42.167  -177.122
9.43874     42.080  -177.631
9.57603     41.993  -178.148
9.71532     41.906  -178.672
9.85663     41.819  -179.205
10.0000     41.731  -179.744
10.1455     41.704  -179.882
10.2930     41.657   179.946
10.4427     41.554   179.679
10.5946     41.452   179.413
10.7487     41.358   179.031
10.9051     41.266   178.627
11.0637     41.177   178.152
11.2246     41.090   177.604
11.3879     41.004   177.024
11.5535     40.919   176.331
11.7216     40.835   175.635
11.8921     40.747   174.796
12.0650     40.660   173.957
12.2405     40.568   172.992
12.4186     40.475   172.010
12.5992     40.374   170.913
12.7825     40.271   169.791
12.9684     40.156   168.559
13.1570     40.039   167.301
13.3484     39.906   165.930
13.5426     39.771   164.541
13.7395     39.615   163.030
13.9394     39.455   161.501
14.1421     39.271   159.863
14.3478     39.077   158.188
14.5565     38.861   156.431
14.7683     38.624   154.609
14.9831     38.371   152.737
15.2010     38.078   150.769
15.4221     37.768   148.763
15.6464     37.415   146.666
15.8740     37.024   144.506
16.1049     36.604   142.297
16.3392     36.104   139.974
16.5768     35.559   137.597
16.8179     34.952   135.146
17.0626     34.223   132.571
17.3107     33.403   129.912
17.5625     32.471   127.153
17.8180     31.283   124.176
18.0771     29.857   120.995
18.3401     28.132   117.541
18.6068     25.704   113.364
18.8775     21.859   106.946
19.1521     15.166    74.502
19.4306      6.532     4.674
19.7133     17.870   -50.929
20.0000     24.012   -68.718
20.2909     27.809   -74.678
20.5860     30.550   -79.246
20.8855     32.725   -83.374
21.1893     34.501   -87.338
21.4975     36.058   -91.281
21.8102     37.453   -95.246
22.1274     38.720   -99.262
22.4492     39.884  -103.350
22.7758     40.963  -107.525
23.1071     41.973  -111.799
23.4432     42.923  -116.181
23.7841     43.818  -120.686
24.1301     44.669  -125.313
24.4811     45.481  -130.063
24.8372     46.257  -134.939
25.1984     47.002  -139.944
25.5649     47.714  -145.076
25.9368     48.398  -150.335
26.3141     49.051  -155.718
26.6968     49.679  -161.222
27.0851     50.277  -166.840
27.4791     50.848  -172.568
27.8788     51.387  -178.398
28.2843     51.899   175.687
28.6957     52.378   169.702
29.1131     52.826   163.663
29.5365     53.239   157.592
29.9661     53.616   151.514
30.4020     53.954   145.459
30.8442     54.246   139.475
31.2929     54.494   133.605
31.7480     54.694   127.906
32.2098     54.847   122.444
32.6783     54.942   117.364
33.1536     54.989   112.754
33.6359     54.995   108.732
34.1251     54.968   105.546
34.6215     54.941   103.378
35.1250     54.952   102.286
35.6359     55.084   102.494
36.1543     55.400   103.684
36.6802     55.968   105.405
37.2137     56.824   106.969
37.7550     57.908   107.752
38.3041     59.170   107.215
38.8613     60.509   105.405
39.4265     61.870   102.253
40.0000     63.204    98.056
40.5818     64.483    92.959
41.1721     65.688    87.144
41.7710     66.816    80.805
42.3785     67.856    74.020
42.9949     68.809    66.941
43.6203     69.680    59.659
44.2548     70.460    52.254
44.8985     71.153    44.821
45.5515     71.763    37.446
46.2141     72.292    30.216
46.8863     72.744    23.231
47.5683     73.121    16.611
48.2602     73.441    10.463
48.9621     73.722     4.896
49.6743     73.988    -0.004
50.3968     74.275    -4.199
51.1299     74.623    -7.746
51.8736     75.069   -10.824
52.6281     75.640   -13.729
53.3936     76.338   -16.816
54.1702     77.140   -20.405
54.9581     78.011   -24.723
55.7575     78.901   -29.858
56.5685     79.773   -35.761
57.3914     80.593   -42.331
58.2261     81.341   -49.429
59.0730     81.996   -56.916
59.9323     82.554   -64.607
60.8040     83.014   -72.346
61.6884     83.373   -79.963
62.5857     83.645   -87.307
63.4960     83.843   -94.211
64.4196     83.992  -100.580
65.3566     84.127  -106.327
66.3073     84.285  -111.518
67.2717     84.501  -116.280
68.2502     84.797  -120.885
69.2429     85.170  -125.613
70.2501     85.601  -130.718
71.2719     86.053  -136.327
72.3086     86.488  -142.434
73.3603     86.877  -148.936
74.4274     87.199  -155.664
75.5099     87.453  -162.424
76.6083     87.644  -169.035
77.7226     87.796  -175.370
78.8531     87.937   178.606
80.0000     88.095   172.818
81.1636     88.286   167.093
82.3442     88.509   161.216
83.5419     88.742   155.012
84.7570     88.952   148.406
85.9899     89.107   141.461
87.2406     89.177   134.331
88.5096     89.152   127.250
89.7970     89.038   120.464
91.1031     88.855   114.186
92.4282     88.642   108.529
93.7726     88.439   103.455
95.1366     88.277    98.799
96.5204     88.161    94.315
97.9243     88.075    89.825
99.3486     87.993    85.289
100.794     87.895    80.805
102.260     87.780    76.532
103.747     87.671    72.577
105.256     87.595    68.916
106.787     87.570    65.392
108.340     87.596    61.798
109.916     87.652    57.987
111.515     87.708    53.944
113.137     87.744    49.768
114.783     87.751    45.609
116.452     87.742    41.604
118.146     87.732    37.834
119.865     87.750    34.275
121.608     87.811    30.802
123.377     87.919    27.218
125.171     88.054    23.356
126.992     88.183    19.182
128.839     88.278    14.829
130.713     88.337    10.518
132.615     88.383     6.409
134.543     88.453     2.381
136.500     88.558    -1.749
138.486     88.664    -5.647
140.500     88.756   -10.115
142.544     88.808   -14.944
144.617     88.829   -19.060
146.721     88.865   -22.837
148.855     88.954   -26.827
151.020     89.089   -30.983
153.217     89.226   -35.477
155.445     89.320   -40.204
157.706     89.354   -44.873
160.000     89.346   -49.565
162.327     89.350   -53.824
164.688     89.392   -57.576
167.084     89.459   -61.769
169.514     89.505   -66.339
171.980     89.534   -70.557
174.481     89.614   -74.106
177.019     89.783   -77.855
179.594     89.983   -82.674
182.206     90.081   -88.465
184.856     90.037   -93.943
187.545     89.957   -98.270
190.273     89.922  -102.418
193.041     89.931  -106.473
195.849     89.966  -110.491
198.697     90.041  -114.922
201.587     90.100  -119.788
204.520     90.057  -124.722
207.494     89.949  -128.939
210.512     89.910  -132.766
213.574     89.948  -136.828
216.681     89.948  -140.880
219.833     89.918  -144.880
223.030     89.924  -148.955
226.274     89.922  -153.156
229.565     89.897  -157.050
232.905     89.932  -160.755
236.292     89.981  -164.901
239.729     89.944  -169.342
243.216     89.883  -173.222
246.754     89.861  -176.929
250.343     89.832   179.179
253.984     89.808   175.483
257.678     89.781   171.851
261.426     89.758   168.400
265.229     89.811   164.887
269.087     89.811   160.953
273.001     89.764   157.641
276.972     89.807   154.451
281.000     89.818   150.768
285.088     89.827   147.277
289.234     89.832   143.647
293.441     89.848   140.706
297.709     90.027   136.986
302.040     89.956   132.183
306.433     89.770   129.171
310.890     89.790   126.127
315.412     89.761   122.887
320.000     89.804   119.645
324.655     89.739   116.043
329.377     89.684   113.429
334.168     89.712   110.160
339.028     89.687   106.841
343.959     89.643   103.502
348.962     89.547   100.658
354.038     89.532    97.975
359.188     89.465    95.063
364.412     89.460    92.376
369.713     89.378    89.158
375.090     89.298    87.198
380.546     89.352    84.433
386.081     89.301    81.540
391.697     89.226    78.761
397.394     89.153    76.503
403.175     89.137    74.207
409.039     89.123    71.915
414.989     89.074    69.314
421.025     89.030    67.303
427.149     89.019    64.965
433.362     88.965    62.731
439.665     88.906    60.430
446.060     88.822    58.293
452.548     88.749    56.309
459.131     88.658    54.451
465.809     88.599    52.691
472.584     88.546    50.895
479.458     88.484    49.277
486.432     88.460    47.686
493.507     88.449    46.013
500.686     88.450    44.285
507.968     88.476    42.500
515.357     88.508    40.596
522.853     88.549    38.541
530.458     88.588    36.292
538.174     88.615    33.947
546.002     88.629    31.533
553.943     88.628    29.008
562.001     88.608    26.391
570.175     88.565    23.705
578.469     88.496    20.978
586.883     88.401    18.301
595.419     88.279    15.705
604.080     88.128    13.170
612.866     87.948    10.737
621.780     87.739     8.453
630.824     87.507     6.363
640.000     87.259     4.546
649.309     87.005     3.023
658.753     86.749     1.784
668.335     86.496     0.825
678.056     86.269     0.168
687.919     86.075    -0.240
697.925     85.924    -0.470
708.077     85.824    -0.607
718.376     85.773    -0.753
728.825     85.768    -1.004
739.426     85.800    -1.436
750.181     85.859    -2.103
761.093     85.931    -3.025
772.163     86.004    -4.172
783.394     86.069    -5.529
794.789     86.121    -7.074
806.349     86.153    -8.701
818.078     86.166   -10.378
829.977     86.163   -12.055
842.050     86.150   -13.696
854.298     86.133   -15.286
866.724     86.120   -16.810
879.330     86.118   -18.346
892.120     86.129   -19.925
905.097     86.153   -21.611
918.262     86.184   -23.466
931.618     86.213   -25.538
945.169     86.226   -27.846
958.917     86.210   -30.379
972.864     86.149   -33.088
987.015     86.033   -35.893
1001.37     85.850   -38.718
1015.94     85.600   -41.386
1030.71     85.291   -43.712
1045.71     84.930   -45.591
1060.92     84.544   -46.874
1076.35     84.182   -47.471
1092.00     83.886   -47.473
1107.89     83.693   -47.115
1124.00     83.627   -46.780
1140.35     83.674   -46.881
1156.94     83.791   -47.740
1173.77     83.919   -49.490
1190.84     83.998   -52.086
1208.16     83.983   -55.351
1225.73     83.835   -59.077
1243.56     83.530   -62.959
1261.65     83.057   -66.596
1280.00     82.423   -69.583
1298.62     81.659   -71.476
1317.51     80.824   -71.863
1336.67     80.031   -70.503
1356.11     79.429   -67.706
1375.84     79.109   -64.408
1395.85     79.047   -61.833
1416.15     79.103   -60.796
1436.75     79.110   -61.333
1457.65     78.931   -62.985
1478.85     78.476   -64.998
1500.36     77.692   -66.361
1522.19     76.567   -65.721
1544.33     75.211   -61.139
1566.79     74.046   -50.699
1589.58     73.826   -35.600
1612.70     74.833   -21.940
1636.16     76.469   -13.769
1659.95     78.141   -10.488
1684.10     79.628   -10.314
1708.60     80.906   -11.997
1733.45     81.990   -14.884
1758.66     82.908   -18.710
1784.24     83.648   -23.255
1810.19     84.189   -28.243
1836.52     84.519   -33.391
1863.24     84.631   -38.159
1890.34     84.553   -41.913
1917.83     84.378   -44.025
1945.73     84.274   -44.221
1974.03     84.437   -43.116
2002.74     84.950   -42.234
2031.87     85.701   -43.014
2061.43     86.484   -45.898
2091.41     87.139   -50.478
2121.83     87.586   -55.984
2152.69     87.816   -61.589
2184.01     87.878   -66.784
2215.77     87.838   -71.269
2248.00     87.764   -74.987
2280.70     87.702   -78.090
2313.87     87.674   -80.735
2347.53     87.704   -83.012
2381.68     87.828   -85.105
2416.32     88.065   -87.468
2451.46     88.373   -90.639
2487.12     88.652   -94.840
2523.30     88.797   -99.748
2560.00     88.764  -104.603
2597.24     88.608  -108.577
2635.01     88.466  -111.360
2673.34     88.479  -113.465
2712.23     88.674  -115.931
2751.68     88.952  -119.468
2791.70     89.191  -124.014
2832.31     89.326  -129.106
2873.50     89.348  -134.275
2915.30     89.272  -139.150
2957.70     89.141  -143.429
3000.72     89.043  -146.992
3044.37     89.074  -150.320
3088.65     89.235  -154.385
3133.58     89.393  -159.762
3179.16     89.388  -166.075
3225.40     89.162  -172.188
3272.31     88.813  -176.949
3319.91     88.553   179.854
3368.20     88.546   177.131
3417.19     88.745   173.363
3466.89     88.948   167.967
3517.32     88.990   161.562
3568.48     88.856   155.281
3620.39     88.670   149.662
3673.05     88.551   144.232
3726.47     88.477   138.278
3780.67     88.358   131.847
3835.67     88.186   125.468
3891.46     88.007   119.176
3948.06     87.799   112.725
4005.49     87.517   106.345
4063.75     87.218   100.348
4122.86     86.977    94.440
4182.82     86.771    88.389
4243.66     86.641    82.412
4305.39     86.665    75.463
4368.01     86.542    66.162
4431.55     85.859    57.046
4496.01     85.061    53.017
4561.40     85.264    50.534
4627.75     85.837    40.796
4695.06     85.443    26.969
4763.35     84.248    17.759
4832.64     83.641    13.788
4902.93     83.707     6.252
4974.24     83.303    -4.931
5046.60     82.310   -14.134
5120.00     81.395   -19.432
5194.47     81.102   -24.372
5270.03     80.997   -33.366
5346.68     80.279   -44.515
5424.45     78.891   -52.404
5503.35     77.700   -53.457
5583.40     77.893   -54.261
5664.61     78.195   -65.816
5747.01     76.298   -78.903
5830.60     74.039   -67.771
5915.41     76.514   -60.948
6001.45     77.465   -78.550
6088.74     75.693   -85.697
6177.30     76.094   -79.133
6267.15     77.459   -87.651
6358.31     77.198   -97.179
6450.80     77.284   -98.026
6544.62     78.414  -104.177
6639.82     78.560  -112.061
6736.40     79.524  -114.293
6834.38     81.094  -125.766
6933.79     81.528  -141.213
7034.64     81.296  -150.003
7136.96     82.489  -157.126
7240.77     83.174  -174.975
7346.09     82.751   173.276
7452.94     83.298   163.435
7561.35     83.699   147.878
7671.33     83.292   132.862
7782.91     83.084   121.339
7896.12     82.525   106.559
8010.97     81.613   100.434
8127.49     82.206    91.955
8245.71     81.858    78.317
8365.65     81.805    72.194
8487.33     82.426    56.827
8610.78     81.594    43.718
8736.03     81.481    33.959
8863.09     81.265    23.748
8992.01     81.602    12.790
9122.80     81.556    -2.468
9255.50     81.288   -14.887
9390.12     81.181   -30.691
9526.70     80.069   -44.450
9665.27     79.884   -52.122
9805.86     79.825   -67.495
9948.49     79.369   -80.112
10093.2     78.899   -95.227
10240.0     78.121  -108.187
10388.9     77.380  -119.860
10540.1     76.943  -131.043
10693.4     76.463  -146.666
10848.9     75.198  -158.726
11006.7     74.028  -170.962
11166.8     72.718  -177.576
11329.2     71.351   174.954
11494.0     70.304   175.778
11661.2     70.016  -178.011
11830.8     72.162  -175.917
12002.9     74.163   173.730
12177.5     75.848   162.396
12354.6     77.138   144.050
12534.3     77.955   126.831
12716.6     78.524   111.404
12901.6     79.195    96.144
13089.2     80.484    79.918
13279.6     81.418    55.873
13472.8     81.362    33.119
13668.8     81.042    13.532
13867.6     81.044     1.458
14069.3     82.138   -18.347
14273.9     82.843   -40.599
14481.5     82.888   -65.090
14692.2     82.743   -85.429
14905.9     83.118  -107.135
15122.7     83.291  -130.430
15342.7     83.172  -156.581
15565.8     82.685  -176.900
15792.2     82.997   160.627
16021.9     83.393   135.285
16255.0     83.175   107.074
16491.4     82.709    80.495
16731.3     82.270    55.343
16974.7     81.810    27.551
17221.6     81.237     5.797
17472.1     81.564   -21.116
17726.2     81.596   -50.698
17984.0     81.509   -84.526
18245.6     80.403  -117.996
18511.0     79.386  -147.488
18780.2     79.323  -178.032
19053.4     78.756   143.415
19330.5     77.382   102.878
19611.7     76.302    64.034
19897.0     74.875    21.809
20186.4     74.875    21.809
20480.0     74.875    21.809
20777.9     74.875    21.809
21080.1     74.875    21.809
21386.7     74.875    21.809
21697.8     74.875    21.809
22013.4     74.875    21.809
22333.6     74.875    21.809
22658.4     74.875    21.809
22988.0     74.875    21.809
23322.4     74.875    21.809
23661.6     74.875    21.809
24005.8     74.875    21.809
24355.0     74.875    21.809
24709.2     74.875    21.809
25068.6     74.875    21.809
25433.2     74.875    21.809
25803.2     74.875    21.809
26178.5     74.875    21.809
26559.3     74.875    21.809
26945.6     74.875    21.809
27337.5     74.875    21.809
27735.2     74.875    21.809
28138.6     74.875    21.809
28547.9     74.875    21.809
28963.1     74.875    21.809
29384.4     74.875    21.809
29811.8     74.875    21.809
30245.4     74.875    21.809
30685.3     74.875    21.809
31131.7     74.875    21.809
31584.5     74.875    21.809
32043.9     74.875    21.809
32510.0     74.875    21.809
32982.8     74.875    21.809
33462.6     74.875    21.809
33949.3     74.875    21.809
34443.1     74.875    21.809
34944.1     74.875    21.809
35452.4     74.875    21.809
35968.0     74.875    21.809
36491.2     74.875    21.809
37022.0     74.875    21.809
37560.5     74.875    21.809
38106.8     74.875    21.809
38661.1     74.875    21.809
39223.4     74.875    21.809
39793.9     74.875    21.809
