Freq[Hz]     dBSPL  Phase[Deg]
5.00000     44.777  -161.018
5.07273     44.690  -161.291
5.14651     44.603  -161.568
5.22137     44.515  -161.849
5.29732     44.428  -162.134
5.37437     44.341  -162.423
5.45254     44.254  -162.716
5.53185     44.167  -163.014
5.61231     44.079  -163.316
5.69394     43.992  -163.622
5.77676     43.905  -163.933
5.86079     43.818  -164.248
5.94604     43.731  -164.568
6.03252     43.643  -164.893
6.12027     43.556  -165.222
6.20929     43.469  -165.556
6.29961     43.382  -165.895
6.39124     43.295  -166.239
6.48420     43.207  -166.588
6.57851     43.120  -166.942
6.67420     43.033  -167.301
6.77128     42.946  -167.665
6.86977     42.859  -168.035
6.96969     42.771  -168.410
7.07107     42.684  -168.790
7.17392     42.597  -169.176
7.27827     42.510  -169.568
7.38413     42.422  -169.965
7.49154     42.335  -170.368
7.60050     42.248  -170.777
7.71105     42.161  -171.192
7.82321     42.074  -171.613
7.93701     41.986  -172.040
8.05245     41.899  -172.474
8.16958     41.812  -172.913
8.28841     41.725  -173.359
8.40896     41.638  -173.811
8.53128     41.550  -174.270
8.65537     41.463  -174.736
8.78126     41.376  -175.209
8.90899     41.289  -175.688
9.03857     41.202  -176.174
9.17004     41.114  -176.668
9.30342     41.027  -177.168
9.43874     40.940  -177.676
9.57603     40.853  -178.191
9.71532     40.766  -178.714
9.85663     40.678  -179.244
10.0000     40.591  -179.783
10.1455     40.564  -179.919
10.2930     40.516   179.911
10.4427     40.414   179.646
10.5946     40.311   179.382
10.7487     40.218   179.002
10.9051     40.125   178.599
11.0637     40.036   178.127
11.2246     39.949   177.581
11.3879     39.863   177.003
11.5535     39.778   176.311
11.7216     39.693   175.618
11.8921     39.606   174.781
12.0650     39.519   173.944
12.2405     39.426   172.981
12.4186     39.333   172.001
12.5992     39.232   170.907
12.7825     39.129   169.787
12.9684     39.014   168.557
13.1570     38.897   167.301
13.3484     38.764   165.933
13.5426     38.629   164.546
13.7395     38.473   163.038
13.9394     38.313   161.510
14.1421     38.128   159.875
14.3478     37.934   158.202
14.5565     37.719   156.448
14.7683     37.481   154.629
14.9831     37.228   152.759
15.2010     36.935   150.793
15.4221     36.625   148.791
15.6464     36.271   146.696
15.8740     35.881   144.539
16.1049     35.460   142.332
16.3392     34.961   140.013
16.5768     34.415   137.638
16.8179     33.808   135.191
17.0626     33.079   132.618
17.3107     32.259   129.963
17.5625     31.327   127.206
17.8180     30.138   124.232
18.0771     28.713   121.054
18.3401     26.988   117.604
18.6068     24.559   113.430
18.8775     20.715   107.015
19.1521     14.021    74.575
19.4306      5.387     4.750
19.7133     16.725   -50.849
20.0000     22.868   -68.634
20.2909     26.664   -74.591
20.5860     29.405   -79.157
20.8855     31.580   -83.281
21.1893     33.356   -87.243
21.4975     34.913   -91.183
21.8102     36.308   -95.144
22.1274     37.574   -99.157
22.4492     38.738  -103.241
22.7758     39.818  -107.413
23.1071     40.827  -111.683
23.4432     41.777  -116.062
23.7841     42.673  -120.563
24.1301     43.523  -125.185
24.4811     44.335  -129.931
24.8372     45.111  -134.803
25.1984     45.855  -139.803
25.5649     46.568  -144.930
25.9368     47.251  -150.185
26.3141     47.904  -155.563
26.6968     48.532  -161.061
27.0851     49.130  -166.674
27.4791     49.700  -172.397
27.8788     50.239  -178.221
28.2843     50.751   175.870
28.6957     51.229   169.890
29.1131     51.677   163.858
29.5365     52.090   157.793
29.9661     52.466   151.722
30.4020     52.803   145.673
30.8442     53.095   139.696
31.2929     53.342   133.834
31.7480     53.542   128.141
32.2098     53.694   122.687
32.6783     53.788   117.616
33.1536     53.835   113.014
33.6359     53.840   109.000
34.1251     53.812   105.822
34.6215     53.784   103.662
35.1250     53.795   102.580
35.6359     53.926   102.797
36.1543     54.241   103.996
36.6802     54.808   105.727
37.2137     55.663   107.301
37.7550     56.745   108.094
38.3041     58.006   107.567
38.8613     59.344   105.768
39.4265     60.704   102.627
40.0000     62.035    98.441
40.5818     63.313    93.356
41.1721     64.516    87.552
41.7710     65.643    81.224
42.3785     66.680    74.452
42.9949     67.632    67.385
43.6203     68.500    60.116
44.2548     69.278    52.723
44.8985     69.968    45.303
45.5515     70.576    37.940
46.2141     71.103    30.724
46.8863     71.552    23.752
47.5683     71.927    17.145
48.2602     72.244    11.011
48.9621     72.521     5.457
49.6743     72.784     0.571
50.3968     73.067    -3.611
51.1299     73.412    -7.144
51.8736     73.854   -10.208
52.6281     74.421   -13.099
53.3936     75.114   -16.172
54.1702     75.912   -19.747
54.9581     76.779   -24.052
55.7575     77.664   -29.173
56.5685     78.531   -35.064
57.3914     79.346   -41.620
58.2261     80.089   -48.705
59.0730     80.738   -56.180
59.9323     81.290   -63.859
60.8040     81.745   -71.587
61.6884     82.097   -79.192
62.5857     82.363   -86.525
63.4960     82.554   -93.419
64.4196     82.696   -99.778
65.3566     82.823  -105.517
66.3073     82.973  -110.700
67.2717     83.182  -115.455
68.2502     83.469  -120.053
69.2429     83.834  -124.776
70.2501     84.257  -129.877
71.2719     84.700  -135.482
72.3086     85.126  -141.587
73.3603     85.505  -148.089
74.4274     85.818  -154.818
75.5099     86.060  -161.580
76.6083     86.242  -168.195
77.7226     86.383  -174.536
78.8531     86.513   179.433
80.0000     86.659   173.636
81.1636     86.838   167.899
82.3442     87.048   162.009
83.5419     87.270   155.789
84.7570     87.468   149.165
85.9899     87.610   142.199
87.2406     87.666   135.046
88.5096     87.628   127.939
89.7970     87.500   121.124
91.1031     87.303   114.814
92.4282     87.075   109.122
93.7726     86.858   104.010
95.1366     86.681    99.312
96.5204     86.549    94.783
97.9243     86.449    90.244
99.3486     86.351    85.655
100.794     86.237    81.115
102.260     86.106    76.781
103.747     85.980    72.761
105.256     85.888    69.032
106.787     85.846    65.434
108.340     85.856    61.762
109.916     85.894    57.869
111.515     85.934    53.738
113.137     85.952    49.470
114.783     85.943    45.213
116.452     85.916    41.106
118.146     85.890    37.228
119.865     85.890    33.556
121.608     85.934    29.964
123.377     86.024    26.257
125.171     86.142    22.265
126.992     86.254    17.956
128.839     86.334    13.462
130.713     86.376     9.004
132.615     86.405     4.743
134.543     86.459     0.553
136.500     86.547    -3.746
138.486     86.639    -7.801
140.500     86.715   -12.445
142.544     86.751   -17.469
144.617     86.758   -21.768
146.721     86.781   -25.730
148.855     86.856   -29.925
151.020     86.977   -34.289
153.217     87.102   -38.995
155.445     87.184   -43.936
157.706     87.206   -48.821
160.000     87.187   -53.749
162.327     87.180   -58.246
164.688     87.213   -62.220
167.084     87.270   -66.655
169.514     87.308   -71.488
171.980     87.328   -75.969
174.481     87.402   -79.765
177.019     87.565   -83.760
179.594     87.759   -88.846
182.206     87.851   -94.924
184.856     87.803  -100.688
187.545     87.720  -105.284
190.273     87.681  -109.720
193.041     87.688  -114.062
195.849     87.722  -118.368
198.697     87.796  -123.105
201.587     87.855  -128.277
204.520     87.812  -133.518
207.494     87.705  -138.040
210.512     87.668  -142.192
213.574     87.708  -146.578
216.681     87.711  -150.936
219.833     87.684  -155.261
223.030     87.694  -159.680
226.274     87.696  -164.224
229.565     87.676  -168.463
232.905     87.716  -172.514
236.292     87.771  -177.007
239.729     87.739   178.185
243.216     87.684   173.935
246.754     87.669   169.857
250.343     87.647   165.571
253.984     87.630   161.478
257.678     87.610   157.445
261.426     87.595   153.569
265.229     87.656   149.626
269.087     87.665   145.256
273.001     87.625   141.503
276.972     87.677   137.866
281.000     87.697   133.707
285.088     87.714   129.709
289.234     87.729   125.564
293.441     87.754   122.099
297.709     87.943   117.844
302.040     87.881   112.496
306.433     87.704   108.903
310.890     87.734   105.242
315.412     87.713   101.370
320.000     87.766    97.481
324.655     87.709    93.218
329.377     87.662    89.927
334.168     87.698    85.908
339.028     87.679    81.821
343.959     87.640    77.694
348.962     87.548    74.044
354.038     87.535    70.533
359.188     87.466    66.743
364.412     87.458    63.125
369.713     87.368    58.953
375.090     87.276    56.018
380.546     87.313    52.224
386.081     87.238    48.284
391.697     87.132    44.408
397.394     87.019    41.006
403.175     86.953    37.598
409.039     86.878    34.161
414.989     86.754    30.394
421.025     86.622    27.245
427.149     86.510    23.813
433.362     86.342    20.548
439.665     86.147    17.244
446.060     85.915    14.219
452.548     85.685    11.486
459.131     85.425     9.024
465.809     85.191     6.836
472.584     84.967     4.813
479.458     84.745     3.169
486.432     84.577     1.741
493.507     84.445     0.403
500.686     84.357    -0.855
507.968     84.332    -2.098
515.357     84.351    -3.448
522.853     84.418    -4.985
530.458     84.520    -6.807
538.174     84.642    -8.874
546.002     84.777   -11.188
553.943     84.920   -13.816
562.001     85.063   -16.765
570.175     85.196   -20.034
578.469     85.312   -23.609
586.883     85.402   -27.390
595.419     85.461   -31.341
604.080     85.484   -35.520
612.866     85.468   -39.896
621.780     85.406   -44.440
630.824     85.293   -49.116
640.000     85.130   -53.789
649.309     84.914   -58.418
658.753     84.640   -63.048
668.335     84.296   -67.708
678.056     83.894   -72.153
687.919     83.423   -76.383
697.925     82.884   -80.301
708.077     82.292   -83.717
718.376     81.643   -86.565
728.825     80.955   -88.678
739.426     80.255   -89.896
750.181     79.587   -90.091
761.093     79.011   -89.262
772.163     78.599   -87.635
783.394     78.389   -85.619
794.789     78.398   -83.758
806.349     78.592   -82.642
818.078     78.910   -82.595
829.977     79.282   -83.714
842.050     79.652   -85.960
854.298     79.976   -89.173
866.724     80.223   -93.126
879.330     80.382   -97.762
892.120     80.437  -102.868
905.097     80.379  -108.296
918.262     80.203  -113.905
931.618     79.903  -119.553
945.169     79.479  -125.088
958.917     78.928  -130.333
972.864     78.254  -135.084
987.015     77.468  -139.092
1001.37     76.585  -142.105
1015.94     75.666  -143.784
1030.71     74.803  -143.959
1045.71     74.082  -142.753
1060.92     73.604  -140.706
1076.35     73.410  -138.766
1092.00     73.438  -137.735
1107.89     73.582  -138.015
1124.00     73.739  -139.559
1140.35     73.842  -142.033
1156.94     73.871  -145.051
1173.77     73.840  -148.210
1190.84     73.800  -151.297
1208.16     73.817  -154.370
1225.73     73.956  -157.857
1243.56     74.239  -162.425
1261.65     74.635  -168.731
1280.00     75.076  -177.258
1298.62     75.494   171.748
1317.51     75.849   158.076
1336.67     76.131   141.676
1356.11     76.367   122.768
1375.84     76.624   101.389
1395.85     76.979    78.031
1416.15     77.481    53.716
1436.75     78.115    29.376
1457.65     78.817     5.538
1478.85     79.488   -17.395
1500.36     80.029   -39.119
1522.19     80.372   -59.869
1544.33     80.459   -79.703
1566.79     80.238   -98.620
1589.58     79.658  -116.500
1612.70     78.667  -132.886
1636.16     77.189  -147.180
1659.95     75.164  -157.806
1684.10     72.698  -161.453
1708.60     70.655  -154.228
1733.45     70.609  -141.710
1758.66     72.143  -137.167
1784.24     73.681  -141.934
1810.19     74.646  -151.502
1836.52     75.019  -163.040
1863.24     74.861  -174.808
1890.34     74.263   174.335
1917.83     73.359   165.243
1945.73     72.341   158.325
1974.03     71.418   152.977
2002.74     70.691   147.566
2031.87     70.012   140.285
2061.43     69.052   130.302
2091.41     67.392   117.647
2121.83     64.395   102.704
2152.69     58.265    85.364
2184.01     45.553   -24.960
2215.77     58.668  -123.431
2248.00     64.050  -142.179
2280.70     66.413  -159.484
2313.87     67.319  -175.374
2347.53     67.257   171.182
2381.68     66.584   161.694
2416.32     65.810   156.760
2451.46     65.450   153.954
2487.12     65.414   148.558
2523.30     64.988   138.496
2560.00     63.310   125.345
2597.24     58.933   115.096
2635.01     51.573   159.508
2673.34     59.253  -148.192
2712.23     65.165  -162.482
2751.68     67.960   174.022
2791.70     68.949   146.771
2832.31     68.332   115.542
2873.50     65.802    76.264
2915.30     61.783    11.221
2957.70     63.139   -77.815
3000.72     67.430  -134.222
3044.37     69.449  -173.887
3088.65     69.187   150.818
3133.58     66.167   117.460
3179.16     54.318    91.356
3225.40     55.414  -129.779
3272.31     65.355  -155.363
3319.91     67.671  -178.475
3368.20     67.918   166.632
3417.19     67.992   160.197
3466.89     68.638   153.500
3517.32     68.660   142.449
3568.48     67.150   137.275
3620.39     66.713   151.735
3673.05     70.176   156.871
3726.47     72.973   138.574
3780.67     73.193   111.664
3835.67     69.648    87.990
3891.46     63.704   123.956
3948.06     71.551   152.531
4005.49     76.094   124.728
4063.75     76.868    92.289
4122.86     74.595    66.146
4182.82     70.450    68.443
4243.66     72.018    89.446
4305.39     75.173    77.331
4368.01     75.620    55.864
4431.55     74.139    42.329
4496.01     73.256    43.702
4561.40     74.579    40.862
4627.75     75.293    25.540
4695.06     74.244    11.805
4763.35     73.158    10.234
4832.64     73.790     9.298
4902.93     74.640     1.302
4974.24     75.332    -9.711
5046.60     75.478   -25.358
5120.00     74.215   -37.789
5194.47     73.707   -37.191
5270.03     75.293   -45.478
5346.68     75.523   -66.710
5424.45     73.526   -83.355
5503.35     71.516   -80.176
5583.40     73.320   -75.581
5664.61     75.453   -95.455
5747.01     74.439  -123.935
5830.60     70.588  -129.566
5915.41     72.006  -117.036
6001.45     74.035  -139.778
6088.74     72.102  -163.021
6177.30     70.111  -161.677
6267.15     71.225  -165.511
6358.31     71.342  -179.874
6450.80     70.966   169.464
6544.62     70.954   158.277
6639.82     70.587   144.654
6736.40     69.826   133.538
6834.38     69.030   126.528
6933.79     70.129   124.338
7034.64     71.902    97.258
7136.96     67.920    68.776
7240.77     67.448    92.345
7346.09     71.195    63.351
7452.94     68.606    29.391
7561.35     66.075    33.066
7671.33     68.825    16.814
7782.91     66.878   -26.370
7896.12     60.320   -18.509
8010.97     65.911   -19.182
8127.49     63.292   -97.686
8245.71     60.940    47.519
8365.65     68.881   -71.843
8487.33     62.790   173.738
8610.78     61.507   -15.239
8736.03     65.189  -124.980
8863.09     56.795   108.156
8992.01     59.464   -98.977
9122.80     61.146   151.104
9255.50     54.157   -33.338
9390.12     61.952   151.528
9526.70     57.733    15.520
9665.27     58.135   154.432
9805.86     61.313    17.877
9948.49     54.093  -160.430
10093.2     60.734    27.987
10240.0     54.879   -77.660
10388.9     57.285   -20.458
10540.1     59.748  -112.572
10693.4     57.204  -108.378
10848.9     61.675  -147.647
11006.7     59.485  -179.213
11166.8     60.503   170.719
11329.2     60.958   138.480
11494.0     62.373   123.209
11661.2     62.274    81.526
11830.8     62.526    54.163
12002.9     60.913    22.513
12177.5     59.506     3.283
12354.6     63.422   -26.026
12534.3     60.582   -54.084
12716.6     64.530   -98.639
12901.6     58.438  -101.542
13089.2     64.350  -155.804
13279.6     60.447  -155.601
13472.8     61.375   147.241
13668.8     62.292   145.244
13867.6     57.263    94.261
14069.3     62.228    63.403
14273.9     55.393  -177.453
14481.5     60.999   -30.069
14692.2     57.549    31.392
14905.9     53.653  -179.182
15122.7     57.744   -95.958
15342.7     51.781    -4.146
15565.8     54.577   105.498
15792.2     53.997  -166.147
16021.9     53.100   -60.836
16255.0     54.196    11.348
16491.4     53.247    91.220
16731.3     53.292   158.522
16974.7     54.825  -123.735
17221.6     51.568   -82.657
17472.1     53.706    -7.271
17726.2     55.597    34.775
17984.0     57.093    89.959
18245.6     49.862   119.433
18511.0     51.876  -157.457
18780.2     51.730  -134.799
19053.4     50.125  -106.125
19330.5     46.526   -91.790
19611.7     46.472   -48.401
19897.0     51.881   -20.960
20186.4     51.630  -177.537
20480.0     51.379    25.887
20777.9     51.128  -130.690
21080.1     50.876    72.734
21386.7     50.625   -83.843
21697.8     50.374   119.581
22013.4     50.123   -36.996
22333.6     49.871   166.428
22658.4     49.620     9.851
22988.0     49.369  -146.725
23322.4     49.117    56.698
23661.6     48.866   -99.878
24005.8     48.615   103.545
24355.0     48.364   -53.031
24709.2     48.112   150.392
25068.6     47.861    -6.184
25433.2     47.610  -162.761
25803.2     47.359    40.662
26178.5     47.107  -115.914
26559.3     46.856    87.509
26945.6     46.605   -69.067
27337.5     46.354   134.356
27735.2     46.102   -22.220
28138.6     45.851  -178.797
28547.9     45.600    24.627
28963.1     45.348  -131.950
29384.4     45.097    71.474
29811.8     44.846   -85.103
30245.4     44.595   118.321
30685.3     44.343   -38.256
31131.7     44.092   165.168
31584.5     43.841     8.591
32043.9     43.590  -147.985
32510.0     43.338    55.438
32982.8     43.087  -101.138
33462.6     42.836   102.285
33949.3     42.585   -54.291
34443.1     42.333   149.132
34944.1     42.082    -7.444
35452.4     41.831  -164.021
35968.0     41.579    39.402
36491.2     41.328  -117.174
37022.0     41.077    86.249
37560.5     40.826   -70.327
38106.8     40.574   133.096
38661.1     40.323   -23.480
39223.4     40.072   179.943
39793.9     39.821    23.367
