Freq[Hz]     dBSPL  Phase[Deg]
5.00000     45.550  -160.836
5.07273     45.462  -161.109
5.14651     45.375  -161.387
5.22137     45.288  -161.668
5.29732     45.200  -161.954
5.37437     45.113  -162.243
5.45254     45.025  -162.537
5.53185     44.938  -162.836
5.61231     44.850  -163.138
5.69394     44.763  -163.445
5.77676     44.675  -163.757
5.86079     44.588  -164.073
5.94604     44.501  -164.393
6.03252     44.413  -164.718
6.12027     44.326  -165.048
6.20929     44.238  -165.383
6.29961     44.151  -165.723
6.39124     44.063  -166.067
6.48420     43.976  -166.417
6.57851     43.888  -166.771
6.67420     43.801  -167.131
6.77128     43.714  -167.496
6.86977     43.626  -167.867
6.96969     43.539  -168.242
7.07107     43.451  -168.624
7.17392     43.364  -169.010
7.27827     43.276  -169.403
7.38413     43.189  -169.801
7.49154     43.101  -170.205
7.60050     43.014  -170.615
7.71105     42.926  -171.030
7.82321     42.839  -171.452
7.93701     42.752  -171.880
8.05245     42.664  -172.314
8.16958     42.577  -172.754
8.28841     42.489  -173.201
8.40896     42.402  -173.655
8.53128     42.314  -174.115
8.65537     42.227  -174.581
8.78126     42.139  -175.055
8.90899     42.052  -175.535
9.03857     41.965  -176.022
9.17004     41.877  -176.517
9.30342     41.790  -177.018
9.43874     41.702  -177.527
9.57603     41.615  -178.043
9.71532     41.527  -178.567
9.85663     41.440  -179.098
10.0000     41.352  -179.637
10.1455     41.325  -179.775
10.2930     41.277  -179.946
10.4427     41.174   179.788
10.5946     41.072   179.522
10.7487     40.978   179.141
10.9051     40.885   178.738
11.0637     40.796   178.264
11.2246     40.708   177.717
11.3879     40.622   177.138
11.5535     40.537   176.445
11.7216     40.452   175.750
11.8921     40.364   174.912
12.0650     40.277   174.074
12.2405     40.184   173.109
12.4186     40.091   172.128
12.5992     39.989   171.032
12.7825     39.886   169.911
12.9684     39.771   168.680
13.1570     39.653   167.423
13.3484     39.520   166.053
13.5426     39.385   164.665
13.7395     39.229   163.155
13.9394     39.068   161.626
14.1421     38.884   159.989
14.3478     38.690   158.315
14.5565     38.474   156.560
14.7683     38.236   154.739
14.9831     37.982   152.867
15.2010     37.689   150.900
15.4221     37.379   148.896
15.6464     37.025   146.800
15.8740     36.634   144.641
16.1049     36.214   142.432
16.3392     35.714   140.111
16.5768     35.168   137.735
16.8179     34.561   135.285
17.0626     33.831   132.711
17.3107     33.011   130.054
17.5625     32.079   127.295
17.8180     30.890   124.320
18.0771     29.464   121.140
18.3401     27.739   117.687
18.6068     25.310   113.512
18.8775     21.466   107.095
19.1521     14.771    74.652
19.4306      6.137     4.825
19.7133     17.475   -50.776
20.0000     23.617   -68.564
20.2909     27.413   -74.522
20.5860     30.155   -79.089
20.8855     32.329   -83.215
21.1893     34.104   -87.178
21.4975     35.661   -91.120
21.8102     37.056   -95.083
22.1274     38.322   -99.098
22.4492     39.486  -103.184
22.7758     40.566  -107.358
23.1071     41.574  -111.631
23.4432     42.524  -116.011
23.7841     43.419  -120.515
24.1301     44.270  -125.140
24.4811     45.082  -129.889
24.8372     45.857  -134.764
25.1984     46.601  -139.767
25.5649     47.313  -144.898
25.9368     47.996  -150.156
26.3141     48.649  -155.538
26.6968     49.276  -161.041
27.0851     49.874  -166.658
27.4791     50.444  -172.385
27.8788     50.984  -178.214
28.2843     51.495   175.872
28.6957     51.973   169.888
29.1131     52.420   163.850
29.5365     52.833   157.780
29.9661     53.210   151.702
30.4020     53.547   145.648
30.8442     53.838   139.664
31.2929     54.086   133.795
31.7480     54.286   128.096
32.2098     54.438   122.634
32.6783     54.532   117.556
33.1536     54.579   112.946
33.6359     54.584   108.924
34.1251     54.556   105.737
34.6215     54.529   103.569
35.1250     54.540   102.478
35.6359     54.671   102.686
36.1543     54.986   103.875
36.6802     55.554   105.596
37.2137     56.409   107.159
37.7550     57.492   107.941
38.3041     58.754   107.404
38.8613     60.092   105.593
39.4265     61.453   102.440
40.0000     62.786    98.243
40.5818     64.064    93.145
41.1721     65.268    87.328
41.7710     66.396    80.987
42.3785     67.435    74.202
42.9949     68.388    67.121
43.6203     69.258    59.837
44.2548     70.037    52.431
44.8985     70.730    44.996
45.5515     71.339    37.618
46.2141     71.867    30.386
46.8863     72.319    23.398
47.5683     72.696    16.776
48.2602     73.015    10.626
48.9621     73.295     5.056
49.6743     73.561     0.153
50.3968     73.847    -4.046
51.1299     74.194    -7.596
51.8736     74.640   -10.677
52.6281     75.210   -13.585
53.3936     75.908   -16.675
54.1702     76.710   -20.268
54.9581     77.580   -24.590
55.7575     78.470   -29.728
56.5685     79.341   -35.636
57.3914     80.161   -42.210
58.2261     80.908   -49.312
59.0730     81.563   -56.803
59.9323     82.120   -64.499
60.8040     82.581   -72.243
61.6884     82.939   -79.863
62.5857     83.211   -87.212
63.4960     83.409   -94.121
64.4196     83.558  -100.494
65.3566     83.692  -106.246
66.3073     83.850  -111.442
67.2717     84.066  -116.209
68.2502     84.362  -120.818
69.2429     84.735  -125.552
70.2501     85.166  -130.662
71.2719     85.618  -136.275
72.3086     86.054  -142.387
73.3603     86.442  -148.893
74.4274     86.765  -155.626
75.5099     87.019  -162.390
76.6083     87.211  -169.006
77.7226     87.363  -175.345
78.8531     87.504   178.627
80.0000     87.662   172.835
81.1636     87.853   167.105
82.3442     88.077   161.226
83.5419     88.311   155.018
84.7570     88.522   148.409
85.9899     88.677   141.460
87.2406     88.748   134.329
88.5096     88.724   127.245
89.7970     88.610   120.457
91.1031     88.428   114.177
92.4282     88.215   108.518
93.7726     88.013   103.443
95.1366     87.852    98.786
96.5204     87.737    94.302
97.9243     87.652    89.812
99.3486     87.570    85.276
100.794     87.473    80.793
102.260     87.360    76.521
103.747     87.251    72.568
105.256     87.176    68.909
106.787     87.153    65.388
108.340     87.180    61.797
109.916     87.236    57.990
111.515     87.293    53.950
113.137     87.330    49.779
114.783     87.339    45.625
116.452     87.330    41.625
118.146     87.321    37.862
119.865     87.340    34.309
121.608     87.402    30.842
123.377     87.511    27.266
125.171     87.646    23.412
126.992     87.776    19.246
128.839     87.872    14.902
130.713     87.931    10.600
132.615     87.978     6.501
134.543     88.049     2.483
136.500     88.154    -1.636
138.486     88.261    -5.525
140.500     88.353    -9.981
142.544     88.406   -14.798
144.617     88.427   -18.903
146.721     88.464   -22.668
148.855     88.553   -26.645
151.020     88.688   -30.789
153.217     88.826   -35.271
155.445     88.920   -39.986
157.706     88.954   -44.642
160.000     88.946   -49.321
162.327     88.949   -53.567
164.688     88.991   -57.308
167.084     89.058   -61.488
169.514     89.104   -66.045
171.980     89.133   -70.250
174.481     89.213   -73.788
177.019     89.382   -77.525
179.594     89.582   -82.333
182.206     89.679   -88.111
184.856     89.635   -93.577
187.545     89.556   -97.893
190.273     89.520  -102.031
193.041     89.529  -106.075
195.849     89.565  -110.083
198.697     89.640  -114.504
201.587     89.700  -119.360
204.520     89.657  -124.284
207.494     89.549  -128.492
210.512     89.511  -132.309
213.574     89.550  -136.362
216.681     89.551  -140.405
219.833     89.522  -144.397
223.030     89.530  -148.463
226.274     89.529  -152.654
229.565     89.506  -156.538
232.905     89.543  -160.235
236.292     89.595  -164.371
239.729     89.560  -168.802
243.216     89.501  -172.672
246.754     89.483  -176.369
250.343     89.457   179.750
253.984     89.436   176.066
257.678     89.413   172.446
261.426     89.395   169.009
265.229     89.452   165.510
269.087     89.458   161.589
273.001     89.415   158.292
276.972     89.463   155.117
281.000     89.480   151.450
285.088     89.495   147.975
289.234     89.506   144.363
293.441     89.528   141.439
297.709     89.715   137.737
302.040     89.651   132.952
306.433     89.472   129.958
310.890     89.500   126.934
315.412     89.478   123.712
320.000     89.530   120.488
324.655     89.473   116.903
329.377     89.426   114.306
334.168     89.464   111.053
339.028     89.448   107.749
343.959     89.413   104.423
348.962     89.326   101.591
354.038     89.320    98.917
359.188     89.262    96.013
364.412     89.267    93.332
369.713     89.193    90.117
375.090     89.122    88.157
380.546     89.184    85.389
386.081     89.141    82.492
391.697     89.073    79.707
397.394     89.006    77.442
403.175     88.995    75.140
409.039     88.984    72.842
414.989     88.938    70.239
421.025     88.894    68.232
427.149     88.882    65.906
433.362     88.827    63.697
439.665     88.763    61.438
446.060     88.674    59.362
452.548     88.596    57.463
459.131     88.500    55.719
465.809     88.436    54.106
472.584     88.380    52.487
479.458     88.318    51.075
486.432     88.299    49.724
493.507     88.297    48.322
500.686     88.314    46.892
507.968     88.362    45.420
515.357     88.423    43.838
522.853     88.500    42.115
530.458     88.584    40.202
538.174     88.664    38.183
546.002     88.739    36.080
553.943     88.807    33.853
562.001     88.865    31.515
570.175     88.909    29.081
578.469     88.937    26.572
586.883     88.945    24.065
595.419     88.935    21.586
604.080     88.904    19.105
612.866     88.852    16.651
621.780     88.780    14.253
630.824     88.689    11.939
640.000     88.584     9.778
649.309     88.470     7.783
658.753     88.348     5.927
668.335     88.222     4.188
678.056     88.102     2.631
687.919     87.991     1.213
697.925     87.895    -0.091
708.077     87.819    -1.290
718.376     87.764    -2.450
728.825     87.729    -3.611
739.426     87.714    -4.813
750.181     87.714    -6.089
761.093     87.725    -7.460
772.163     87.740    -8.909
783.394     87.755   -10.452
794.789     87.766   -12.096
806.349     87.768   -13.761
818.078     87.761   -15.436
829.977     87.746   -17.087
842.050     87.726   -18.681
854.298     87.706   -20.198
866.724     87.694   -21.612
879.330     87.695   -22.979
892.120     87.716   -24.315
905.097     87.761   -25.672
918.262     87.828   -27.116
931.618     87.915   -28.709
945.169     88.012   -30.502
958.917     88.108   -32.523
972.864     88.192   -34.773
987.015     88.250   -37.223
1001.37     88.273   -39.849
1015.94     88.251   -42.536
1030.71     88.183   -45.150
1045.71     88.068   -47.642
1060.92     87.915   -49.888
1076.35     87.741   -51.734
1092.00     87.570   -53.143
1107.89     87.427   -54.127
1124.00     87.343   -54.758
1140.35     87.341   -55.214
1156.94     87.428   -55.738
1173.77     87.592   -56.559
1190.84     87.810   -57.846
1208.16     88.047   -59.665
1225.73     88.275   -62.017
1243.56     88.469   -64.806
1261.65     88.612   -67.865
1280.00     88.699   -71.034
1298.62     88.736   -74.168
1317.51     88.737   -77.189
1336.67     88.718   -80.039
1356.11     88.700   -82.703
1375.84     88.698   -85.281
1395.85     88.718   -87.886
1416.15     88.755   -90.607
1436.75     88.794   -93.505
1457.65     88.821   -96.603
1478.85     88.822   -99.833
1500.36     88.792  -103.063
1522.19     88.739  -106.216
1544.33     88.676  -109.236
1566.79     88.620  -112.145
1589.58     88.581  -115.039
1612.70     88.555  -118.016
1636.16     88.522  -121.169
1659.95     88.457  -124.457
1684.10     88.341  -127.701
1708.60     88.179  -130.635
1733.45     88.004  -132.995
1758.66     87.878  -134.749
1784.24     87.866  -136.139
1810.19     87.993  -137.704
1836.52     88.222  -140.027
1863.24     88.464  -143.346
1890.34     88.627  -147.497
1917.83     88.657  -151.991
1945.73     88.551  -156.211
1974.03     88.364  -159.635
2002.74     88.203  -162.033
2031.87     88.175  -163.758
2061.43     88.319  -165.599
2091.41     88.577  -168.279
2121.83     88.844  -172.011
2152.69     89.030  -176.459
2184.01     89.107   178.816
2215.77     89.093   174.229
2248.00     89.030   169.998
2280.70     88.954   166.087
2313.87     88.876   162.370
2347.53     88.792   158.826
2381.68     88.705   155.574
2416.32     88.640   152.691
2451.46     88.637   150.116
2487.12     88.726   147.578
2523.30     88.906   144.697
2560.00     89.137   141.154
2597.24     89.358   136.830
2635.01     89.502   131.797
2673.34     89.512   126.378
2712.23     89.363   121.091
2751.68     89.070   116.516
2791.70     88.703   113.211
2832.31     88.385   111.447
2873.50     88.273   110.954
2915.30     88.492   110.584
2957.70     88.998   108.602
3000.72     89.531   103.975
3044.37     89.790    97.265
3088.65     89.611    90.308
3133.58     89.089    85.450
3179.16     88.613    83.778
3225.40     88.554    83.297
3272.31     88.747    81.140
3319.91     88.791    77.619
3368.20     88.664    75.080
3417.19     88.722    73.972
3466.89     89.094    71.700
3517.32     89.389    66.756
3568.48     89.245    61.176
3620.39     88.785    58.239
3673.05     88.602    58.742
3726.47     89.052    58.717
3780.67     89.650    54.774
3835.67     89.814    48.523
3891.46     89.506    43.737
3948.06     89.241    42.279
4005.49     89.446    41.320
4063.75     89.788    37.854
4122.86     89.861    33.421
4182.82     89.824    30.210
4243.66     89.940    27.301
4305.39     90.069    23.396
4368.01     90.073    19.403
4431.55     90.060    15.845
4496.01     90.019    12.407
4561.40     89.991    10.046
4627.75     90.304     7.778
4695.06     90.742     2.312
4763.35     90.734    -5.079
4832.64     90.398   -11.118
4902.93     89.991   -16.636
4974.24     89.193   -20.998
5046.60     88.490   -19.763
5120.00     88.844   -18.602
5194.47     89.243   -23.725
5270.03     88.957   -29.897
5346.68     88.369   -33.605
5424.45     87.823   -34.914
5503.35     87.548   -35.091
5583.40     87.443   -35.912
5664.61     87.367   -37.137
5747.01     87.289   -38.828
5830.60     87.059   -40.172
5915.41     86.892   -38.936
6001.45     87.392   -37.900
6088.74     87.858   -41.924
6177.30     87.739   -45.322
6267.15     87.738   -46.647
6358.31     87.869   -47.486
6450.80     88.307   -49.403
6544.62     88.511   -53.529
6639.82     88.522   -56.362
6736.40     88.697   -57.754
6834.38     89.249   -61.331
6933.79     89.286   -67.315
7034.64     89.233   -70.691
7136.96     89.229   -74.250
7240.77     89.351   -77.130
7346.09     89.451   -81.465
7452.94     89.509   -85.511
7561.35     89.486   -89.979
7671.33     89.500   -94.289
7782.91     89.312  -100.196
7896.12     88.725  -103.620
8010.97     88.437  -104.304
8127.49     88.451  -105.097
8245.71     88.596  -107.681
8365.65     88.778  -109.885
8487.33     88.984  -114.767
8610.78     88.823  -118.357
8736.03     88.798  -120.976
8863.09     89.011  -123.763
8992.01     89.173  -127.943
9122.80     89.433  -132.979
9255.50     89.220  -139.485
9390.12     88.898  -143.994
9526.70     88.505  -146.266
9665.27     88.572  -147.695
9805.86     88.882  -151.524
9948.49     89.024  -156.594
10093.2     89.022  -162.337
10240.0     88.820  -166.868
10388.9     88.866  -170.953
10540.1     89.145  -175.824
10693.4     89.161   175.054
10848.9     88.751   167.672
11006.7     88.001   160.261
11166.8     87.267   157.802
11329.2     87.088   154.967
11494.0     87.011   149.473
11661.2     86.565   143.460
11830.8     85.966   137.885
12002.9     85.246   135.173
12177.5     84.961   133.351
12354.6     84.881   129.052
12534.3     84.365   121.198
12716.6     83.337   118.057
12901.6     82.219   118.511
13089.2     82.522   121.239
13279.6     82.707   116.990
13472.8     82.532   111.789
13668.8     81.694   108.181
13867.6     81.621   110.440
14069.3     82.152   109.510
14273.9     82.655   102.210
14481.5     82.354    94.301
14692.2     81.791    90.291
14905.9     81.525    87.879
15122.7     81.503    83.984
15342.7     81.336    80.719
15565.8     81.291    79.327
15792.2     82.098    76.766
16021.9     82.744    68.762
16255.0     83.039    59.619
16491.4     82.948    50.885
16731.3     83.191    42.283
16974.7     82.614    33.082
17221.6     82.784    27.448
17472.1     83.110    18.558
17726.2     83.308     7.724
17984.0     83.248    -6.358
18245.6     82.483   -18.053
18511.0     81.960   -25.793
18780.2     82.215   -35.274
19053.4     82.244   -50.375
19330.5     81.536   -64.236
19611.7     81.153   -76.376
19897.0     80.712   -89.363
20186.4     80.560   -94.548
20480.0     80.408   -99.732
20777.9     80.255  -104.917
21080.1     80.103  -110.101
21386.7     79.950  -115.286
21697.8     79.798  -120.471
22013.4     79.646  -125.655
22333.6     79.493  -130.840
22658.4     79.341  -136.025
22988.0     79.188  -141.209
23322.4     79.036  -146.394
23661.6     78.883  -151.578
24005.8     78.731  -156.763
24355.0     78.579  -161.948
24709.2     78.426  -167.132
25068.6     78.274  -172.317
25433.2     78.121  -177.502
25803.2     77.969   177.314
26178.5     77.816   172.129
26559.3     77.664   166.945
26945.6     77.512   161.760
27337.5     77.359   156.575
27735.2     77.207   151.391
28138.6     77.054   146.206
28547.9     76.902   141.021
28963.1     76.749   135.837
29384.4     76.597   130.652
29811.8     76.445   125.468
30245.4     76.292   120.283
30685.3     76.140   115.098
31131.7     75.987   109.914
31584.5     75.835   104.729
32043.9     75.683    99.544
32510.0     75.530    94.360
32982.8     75.378    89.175
33462.6     75.225    83.991
33949.3     75.073    78.806
34443.1     74.920    73.621
34944.1     74.768    68.437
35452.4     74.616    63.252
35968.0     74.463    58.067
36491.2     74.311    52.883
37022.0     74.158    47.698
37560.5     74.006    42.514
38106.8     73.853    37.329
38661.1     73.701    32.144
39223.4     73.549    26.960
39793.9     73.396    21.775
