Freq[Hz]     dBSPL  Phase[Deg]
5.00000     43.530  -161.751
5.07273     43.445  -162.036
5.14651     43.360  -162.324
5.22137     43.274  -162.617
5.29732     43.189  -162.914
5.37437     43.103  -163.216
5.45254     43.018  -163.522
5.53185     42.933  -163.832
5.61231     42.847  -164.147
5.69394     42.762  -164.466
5.77676     42.677  -164.790
5.86079     42.591  -165.119
5.94604     42.506  -165.452
6.03252     42.420  -165.791
6.12027     42.335  -166.134
6.20929     42.250  -166.482
6.29961     42.164  -166.836
6.39124     42.079  -167.194
6.48420     41.993  -167.558
6.57851     41.908  -167.927
6.67420     41.823  -168.301
6.77128     41.737  -168.681
6.86977     41.652  -169.066
6.96969     41.567  -169.457
7.07107     41.481  -169.854
7.17392     41.396  -170.256
7.27827     41.310  -170.665
7.38413     41.225  -171.079
7.49154     41.140  -171.499
7.60050     41.054  -171.925
7.71105     40.969  -172.358
7.82321     40.883  -172.797
7.93701     40.798  -173.242
8.05245     40.713  -173.694
8.16958     40.627  -174.152
8.28841     40.542  -174.617
8.40896     40.457  -175.088
8.53128     40.371  -175.567
8.65537     40.286  -176.052
8.78126     40.200  -176.545
8.90899     40.115  -177.045
9.03857     40.030  -177.552
9.17004     39.944  -178.066
9.30342     39.859  -178.588
9.43874     39.773  -179.117
9.57603     39.688  -179.654
9.71532     39.603   179.801
9.85663     39.517   179.248
10.0000     39.432   178.687
10.1455     39.406   178.528
10.2930     39.361   178.334
10.4427     39.260   178.045
10.5946     39.159   177.756
10.7487     39.067   177.352
10.9051     38.977   176.924
11.0637     38.889   176.427
11.2246     38.804   175.855
11.3879     38.720   175.251
11.5535     38.637   174.533
11.7216     38.554   173.813
11.8921     38.468   172.948
12.0650     38.383   172.084
12.2405     38.292   171.093
12.4186     38.201   170.085
12.5992     38.102   168.962
12.7825     38.000   167.813
12.9684     37.887   166.553
13.1570     37.772   165.267
13.3484     37.641   163.868
13.5426     37.508   162.450
13.7395     37.353   160.911
13.9394     37.195   159.352
14.1421     37.013   157.684
14.3478     36.821   155.978
14.5565     36.607   154.191
14.7683     36.371   152.338
14.9831     36.119   150.434
15.2010     35.828   148.433
15.4221     35.520   146.396
15.6464     35.168   144.265
15.8740     34.780   142.072
16.1049     34.361   139.828
16.3392     33.863   137.471
16.5768     33.320   135.059
16.8179     32.715   132.573
17.0626     31.987   129.961
17.3107     31.169   127.267
17.5625     30.239   124.470
17.8180     29.052   121.455
18.0771     27.628   118.236
18.3401     25.905   114.743
18.6068     23.478   110.527
18.8775     19.636   104.069
19.1521     12.944    71.585
19.4306      4.311     1.716
19.7133     15.652   -53.929
20.0000     21.796   -71.760
20.2909     25.593   -77.763
20.5860     28.336   -82.372
20.8855     30.512   -86.540
21.1893     32.289   -90.546
21.4975     33.848   -94.531
21.8102     35.245   -98.538
22.1274     36.514  -102.597
22.4492     37.680  -106.728
22.7758     38.760  -110.946
23.1071     39.772  -115.264
23.4432     40.723  -119.690
23.7841     41.621  -124.240
24.1301     42.474  -128.912
24.4811     43.288  -133.708
24.8372     44.066  -138.630
25.1984     44.812  -143.681
25.5649     45.526  -148.859
25.9368     46.212  -154.166
26.3141     46.868  -159.597
26.6968     47.497  -165.148
27.0851     48.098  -170.815
27.4791     48.670  -176.592
27.8788     49.212   177.529
28.2843     49.725   171.565
28.6957     50.207   165.530
29.1131     50.657   159.441
29.5365     51.072   153.320
29.9661     51.452   147.190
30.4020     51.792   141.084
30.8442     52.087   135.048
31.2929     52.337   129.127
31.7480     52.540   123.374
32.2098     52.694   117.860
32.6783     52.792   112.728
33.1536     52.842   108.064
33.6359     52.849   103.989
34.1251     52.826   100.748
34.6215     52.801    98.526
35.1250     52.815    97.380
35.6359     52.950    97.533
36.1543     53.267    98.667
36.6802     53.838   100.333
37.2137     54.697   101.842
37.7550     55.783   102.568
38.3041     57.047   101.975
38.8613     58.390   100.109
39.4265     59.753    96.900
40.0000     61.089    92.646
40.5818     62.371    87.492
41.1721     63.578    81.619
41.7710     64.709    75.222
42.3785     65.751    68.380
42.9949     66.706    61.243
43.6203     67.579    53.902
44.2548     68.362    46.438
44.8985     69.056    38.946
45.5515     69.669    31.511
46.2141     70.199    24.223
46.8863     70.653    17.177
47.5683     71.033    10.497
48.2602     71.355     4.289
48.9621     71.637    -1.339
49.6743     71.905    -6.300
50.3968     72.193   -10.556
51.1299     72.543   -14.165
51.8736     72.990   -17.305
52.6281     73.562   -20.272
53.3936     74.261   -23.421
54.1702     75.064   -27.074
54.9581     75.935   -31.455
55.7575     76.826   -36.654
56.5685     77.698   -42.623
57.3914     78.518   -49.258
58.2261     79.266   -56.421
59.0730     79.921   -63.974
59.9323     80.478   -71.733
60.8040     80.938   -79.540
61.6884     81.296   -87.225
62.5857     81.567   -94.638
63.4960     81.763  -101.612
64.4196     81.911  -108.052
65.3566     82.043  -113.872
66.3073     82.199  -119.136
67.2717     82.412  -123.973
68.2502     82.705  -128.653
69.2429     83.075  -133.458
70.2501     83.503  -138.642
71.2719     83.950  -144.330
72.3086     84.381  -150.518
73.3603     84.765  -157.103
74.4274     85.083  -163.917
75.5099     85.331  -170.763
76.6083     85.517  -177.463
77.7226     85.662   176.111
78.8531     85.796   169.994
80.0000     85.947   164.110
81.1636     86.130   158.287
82.3442     86.345   152.310
83.5419     86.570   146.002
84.7570     86.772   139.289
85.9899     86.917   132.234
87.2406     86.978   124.992
88.5096     86.943   117.794
89.7970     86.817   110.887
91.1031     86.623   104.485
92.4282     86.399    98.700
93.7726     86.184    93.494
95.1366     86.009    88.702
96.5204     85.880    84.077
97.9243     85.781    79.440
99.3486     85.684    74.753
100.794     85.572    70.113
102.260     85.442    65.678
103.747     85.317    61.555
105.256     85.225    57.721
106.787     85.183    54.018
108.340     85.193    50.238
109.916     85.231    46.235
111.515     85.270    41.992
113.137     85.287    37.609
114.783     85.276    33.237
116.452     85.248    29.011
118.146     85.218    25.011
119.865     85.216    21.215
121.608     85.258    17.495
123.377     85.345    13.657
125.171     85.459     9.532
126.992     85.567     5.085
128.839     85.642     0.450
130.713     85.680    -4.152
132.615     85.705    -8.563
134.543     85.753   -12.909
136.500     85.835   -17.370
138.486     85.922   -21.575
140.500     85.992   -26.386
142.544     86.022   -31.595
144.617     86.023   -36.066
146.721     86.039   -40.203
148.855     86.107   -44.592
151.020     86.221   -49.153
153.217     86.339   -54.058
155.445     86.413   -59.202
157.706     86.429   -64.292
160.000     86.403   -69.446
162.327     86.388   -74.173
164.688     86.415   -78.362
167.084     86.465   -83.032
169.514     86.496   -88.121
171.980     86.510   -92.861
174.481     86.578   -96.900
177.019     86.735  -101.141
179.594     86.925  -106.493
182.206     87.012  -112.858
184.856     86.959  -118.912
187.545     86.872  -123.778
190.273     86.831  -128.506
193.041     86.835  -133.141
195.849     86.867  -137.739
198.697     86.940  -142.789
201.587     86.999  -148.272
204.520     86.956  -153.824
207.494     86.850  -158.655
210.512     86.815  -163.134
213.574     86.858  -167.845
216.681     86.864  -172.505
219.833     86.841  -177.149
223.030     86.856   178.097
226.274     86.864   173.222
229.565     86.850   168.657
232.905     86.896   164.283
236.292     86.958   159.472
239.729     86.935   154.332
243.216     86.888   149.756
246.754     86.882   145.355
250.343     86.869   140.734
253.984     86.861   136.310
257.678     86.852   131.952
261.426     86.847   127.738
265.229     86.919   123.462
269.087     86.938   118.761
273.001     86.909   114.681
276.972     86.972   110.719
281.000     87.003   106.222
285.088     87.032   101.873
289.234     87.058    97.378
293.441     87.094    93.563
297.709     87.295    88.958
302.040     87.245    83.259
306.433     87.080    79.298
310.890     87.122    75.250
315.412     87.115    70.988
320.000     87.180    66.705
324.655     87.137    62.042
329.377     87.104    58.346
334.168     87.155    53.882
339.028     87.152    49.340
343.959     87.130    44.749
348.962     87.055    40.623
354.038     87.061    36.626
359.188     87.013    32.317
364.412     87.026    28.145
369.713     86.959    23.403
375.090     86.891    19.879
380.546     86.954    15.455
386.081     86.907    10.861
391.697     86.830     6.282
397.394     86.746     2.125
403.175     86.711    -2.047
409.039     86.667    -6.308
414.989     86.574   -10.963
421.025     86.472   -15.042
427.149     86.386   -19.448
433.362     86.240   -23.732
439.665     86.063   -28.165
446.060     85.840   -32.366
452.548     85.608   -36.314
459.131     85.332   -40.058
465.809     85.065   -43.579
472.584     84.789   -46.928
479.458     84.495   -49.862
486.432     84.230   -52.542
493.507     83.978   -55.048
500.686     83.748   -57.342
507.968     83.567   -59.424
515.357     83.426   -61.398
522.853     83.331   -63.349
530.458     83.278   -65.375
538.174     83.263   -67.457
546.002     83.284   -69.638
553.943     83.337   -72.023
562.001     83.416   -74.657
570.175     83.512   -77.581
578.469     83.619   -80.815
586.883     83.723   -84.293
595.419     83.819   -88.002
604.080     83.900   -92.008
612.866     83.960   -96.295
621.780     83.992  -100.845
630.824     83.990  -105.631
640.000     83.951  -110.525
649.309     83.872  -115.491
658.753     83.749  -120.592
668.335     83.574  -125.887
678.056     83.349  -131.130
687.919     83.068  -136.369
697.925     82.727  -141.541
708.077     82.331  -146.480
718.376     81.873  -151.197
728.825     81.352  -155.580
739.426     80.772  -159.504
750.181     80.142  -162.810
761.093     79.480  -165.333
772.163     78.829  -166.894
783.394     78.225  -167.442
794.789     77.723  -167.005
806.349     77.400  -165.861
818.078     77.293  -164.494
829.977     77.400  -163.501
842.050     77.678  -163.407
854.298     78.060  -164.492
866.724     78.471  -166.797
879.330     78.867  -170.303
892.120     79.204  -174.831
905.097     79.453   179.789
918.262     79.599   173.725
931.618     79.626   167.128
945.169     79.527   160.148
958.917     79.291   152.929
972.864     78.909   145.630
987.015     78.367   138.442
1001.37     77.644   131.523
1015.94     76.732   125.313
1030.71     75.641   120.363
1045.71     74.363   117.277
1060.92     72.984   117.074
1076.35     71.766   120.593
1092.00     71.069   127.333
1107.89     71.149   134.624
1124.00     71.841   139.179
1140.35     72.741   139.919
1156.94     73.561   137.487
1173.77     74.156   132.932
1190.84     74.486   127.130
1208.16     74.552   120.728
1225.73     74.369   114.140
1243.56     73.967   107.751
1261.65     73.398   101.896
1280.00     72.732    96.641
1298.62     72.040    91.744
1317.51     71.356    86.539
1336.67     70.653    80.107
1356.11     69.819    71.512
1375.84     68.639    59.550
1395.85     66.835    42.269
1416.15     64.221    14.493
1436.75     62.201   -34.352
1457.65     64.458   -90.447
1478.85     68.574  -126.686
1500.36     71.876  -150.806
1522.19     74.300  -170.562
1544.33     76.031   171.593
1566.79     77.186   154.841
1589.58     77.830   138.964
1612.70     77.989   124.176
1636.16     77.674   110.741
1659.95     76.888    99.445
1684.10     75.679    91.747
1708.60     74.296    89.763
1733.45     73.430    94.443
1758.66     73.807   101.364
1784.24     75.144   103.643
1810.19     76.601    99.963
1836.52     77.761    92.372
1863.24     78.510    82.853
1890.34     78.864    72.656
1917.83     78.869    62.564
1945.73     78.578    53.100
1974.03     78.049    44.567
2002.74     77.350    37.264
2031.87     76.552    31.279
2061.43     75.722    26.520
2091.41     74.892    22.707
2121.83     74.054    19.609
2152.69     73.165    17.391
2184.01     72.203    16.817
2215.77     71.332    18.969
2248.00     70.948    23.405
2280.70     71.249    26.700
2313.87     71.849    25.563
2347.53     72.148    20.128
2381.68     71.750    13.011
2416.32     70.541     8.224
2451.46     68.970    11.173
2487.12     68.532    21.973
2523.30     69.692    28.264
2560.00     70.791    25.165
2597.24     70.834    18.928
2635.01     69.913    17.543
2673.34     69.435    26.254
2712.23     70.905    34.584
2751.68     72.899    31.394
2791.70     73.929    21.275
2832.31     73.760    11.495
2873.50     72.906     8.482
2915.30     72.819    13.260
2957.70     74.142    14.908
3000.72     75.473     7.715
3044.37     75.851    -3.496
3088.65     75.233   -12.582
3133.58     74.321   -14.492
3179.16     74.421   -11.362
3225.40     75.568   -13.170
3272.31     76.502   -22.467
3319.91     76.532   -35.139
3368.20     75.533   -46.648
3417.19     73.747   -52.218
3466.89     72.110   -48.189
3517.32     71.927   -39.301
3568.48     72.983   -35.607
3620.39     74.178   -39.684
3673.05     74.672   -49.849
3726.47     73.613   -61.075
3780.67     70.846   -57.021
3835.67     71.912   -30.810
3891.46     76.410   -33.774
3948.06     78.648   -56.900
4005.49     78.289   -83.356
4063.75     75.376  -102.082
4122.86     71.975   -95.125
4182.82     72.816   -83.178
4243.66     73.699   -90.967
4305.39     73.005   -97.426
4368.01     72.810   -99.859
4431.55     72.438  -109.626
4496.01     69.879  -114.729
4561.40     68.806   -94.742
4627.75     71.817   -91.333
4695.06     72.913  -108.476
4763.35     71.047  -124.207
4832.64     67.577  -113.107
4902.93     70.435   -89.322
4974.24     74.221  -106.121
5046.60     74.136  -136.022
5120.00     69.605  -153.545
5194.47     67.232  -122.076
5270.03     71.473  -121.896
5346.68     72.229  -146.884
5424.45     69.145  -172.200
5503.35     61.220  -151.196
5583.40     67.260  -108.357
5664.61     70.482  -139.260
5747.01     66.314  -165.213
5830.60     62.779  -117.560
5915.41     69.795  -112.697
6001.45     71.531  -139.885
6088.74     69.172  -156.750
6177.30     68.348  -142.262
6267.15     70.826  -150.312
6358.31     69.969  -163.756
6450.80     69.901  -166.633
6544.62     68.822  -178.691
6639.82     67.591  -169.289
6736.40     69.198  -173.603
6834.38     68.470   177.840
6933.79     67.850   177.302
7034.64     68.388  -178.393
7136.96     70.064   166.703
7240.77     66.673   155.067
7346.09     68.458   176.641
7452.94     70.063   150.777
7561.35     67.690   146.961
7671.33     68.792   143.891
7782.91     68.208   131.508
7896.12     67.350   122.898
8010.97     65.641   115.801
8127.49     64.956   122.365
8245.71     65.410   109.839
8365.65     63.016   109.032
8487.33     63.014   102.929
8610.78     61.195   104.408
8736.03     59.058   109.848
8863.09     61.783   111.542
8992.01     58.747   120.632
9122.80     62.923    94.989
9255.50     56.109   116.421
9390.12     60.333    92.951
9526.70     54.672   136.471
9665.27     60.105   114.892
9805.86     58.002   141.063
9948.49     62.150   128.650
10093.2     63.292   126.671
10240.0     63.624   106.672
10388.9     63.735   103.420
10540.1     62.956    99.854
10693.4     63.601    95.277
10848.9     64.252    89.856
11006.7     64.751    84.190
11166.8     64.876    71.794
11329.2     64.686    65.136
11494.0     64.239    55.096
11661.2     63.194    54.667
11830.8     63.437    55.395
12002.9     63.777    52.027
12177.5     65.740    44.438
12354.6     65.202    30.808
12534.3     64.778    20.888
12716.6     63.369    21.609
12901.6     64.177    23.525
13089.2     65.710    18.985
13279.6     66.550     0.516
13472.8     66.187    -8.442
13668.8     64.673   -20.575
13867.6     65.001   -16.563
14069.3     64.876   -25.056
14273.9     66.771   -36.835
14481.5     65.164   -49.549
14692.2     65.355   -65.666
14905.9     64.305   -62.217
15122.7     63.212   -80.289
15342.7     63.538   -93.532
15565.8     61.459   -92.756
15792.2     60.452  -102.815
16021.9     62.072  -104.315
16255.0     60.911  -118.187
16491.4     59.277  -139.378
16731.3     58.882  -142.969
16974.7     57.267  -138.761
17221.6     57.669  -155.033
17472.1     57.540  -172.104
17726.2     56.100   179.286
17984.0     55.366   150.796
18245.6     54.175   129.919
18511.0     48.975   119.427
18780.2     47.932   -57.816
19053.4     50.265   -54.832
19330.5     46.733  -112.554
19611.7     50.838  -148.513
19897.0     53.449  -171.165
20186.4     53.155   174.482
20480.0     52.860   160.130
20777.9     52.565   145.778
21080.1     52.271   131.426
21386.7     51.976   117.073
21697.8     51.681   102.721
22013.4     51.386    88.369
22333.6     51.092    74.017
22658.4     50.797    59.665
22988.0     50.502    45.312
23322.4     50.208    30.960
23661.6     49.913    16.608
24005.8     49.618     2.256
24355.0     49.323   -12.097
24709.2     49.029   -26.449
25068.6     48.734   -40.801
25433.2     48.439   -55.153
25803.2     48.144   -69.505
26178.5     47.850   -83.858
26559.3     47.555   -98.210
26945.6     47.260  -112.562
27337.5     46.966  -126.914
27735.2     46.671  -141.267
28138.6     46.376  -155.619
28547.9     46.081  -169.971
28963.1     45.787   175.677
29384.4     45.492   161.325
29811.8     45.197   146.972
30245.4     44.903   132.620
30685.3     44.608   118.268
31131.7     44.313   103.916
31584.5     44.018    89.563
32043.9     43.724    75.211
32510.0     43.429    60.859
32982.8     43.134    46.507
33462.6     42.840    32.155
33949.3     42.545    17.802
34443.1     42.250     3.450
34944.1     41.955   -10.902
35452.4     41.661   -25.254
35968.0     41.366   -39.607
36491.2     41.071   -53.959
37022.0     40.777   -68.311
37560.5     40.482   -82.663
38106.8     40.187   -97.016
38661.1     39.892  -111.368
39223.4     39.598  -125.720
39793.9     39.303  -140.072
