"Vertical Reflections"
"Floor Reflection"		"Ceiling Reflection"		"Total Vertical Reflection"
"Frequency / Hz"	"Sound Pressure Level / dB (re 20 µPa/V)  [2.83  V @ 1. m]"	"Frequency / Hz"	"Sound Pressure Level / dB (re 20 µPa/V)  [2.83  V @ 1. m]"	"Frequency / Hz"	"Sound Pressure Level / dB (re 20 µPa/V)  [2.83  V @ 1. m]"
20.1416	49.6824	20.1416	48.1858	20.1416	48.9982
20.5078	43.4059	20.5078	38.1155	20.5078	41.5209
21.2402	50.0412	21.2402	48.6698	21.2402	49.4094
21.9727	49.2957	21.9727	47.8105	21.9727	48.6163
22.7051	34.5739	22.7051	35.0784	22.7051	34.8334
23.8037	54.137	23.8037	54.0314	23.8037	54.0845
24.5361	46.821	24.5361	47.4484	24.5361	47.146
25.2686	35.0776	25.2686	28.5939	25.2686	32.9477
26.3672	31.8414	26.3672	30.1298	26.3672	31.0694
27.0996	39.3481	27.0996	40.3771	27.0996	39.893
28.1982	40.6775	28.1982	41.5791	28.1982	41.1517
29.2969	35.1748	29.2969	36.2714	29.2969	35.7576
30.0293	38.0482	30.0293	41.543	30.0293	40.138
31.1279	51.3198	31.1279	52.44	31.1279	51.9159
32.2266	51.7133	32.2266	53.8328	32.2266	52.9011
33.3252	53.8799	33.3252	55.3872	33.3252	54.6986
34.79	53.2665	34.79	53.9255	34.79	53.6085
35.8887	55.6176	35.8887	58.3624	35.8887	57.2033
36.9873	58.0756	36.9873	60.1289	36.9873	59.2225
38.4521	61.9554	38.4521	63.7036	38.4521	62.9169
39.917	64.1706	39.917	65.5307	39.917	64.9037
41.3818	67.7146	41.3818	69.1387	41.3818	68.4848
42.8467	70.0259	42.8467	71.4086	42.8467	70.7721
44.3115	71.7382	44.3115	73.0608	44.3115	72.4496
45.7764	73.7163	45.7764	74.9025	45.7764	74.3498
47.2412	75.601	47.2412	76.7625	47.2412	76.2205
49.0723	77.77	49.0723	78.832	49.0723	78.3334
50.9033	79.9311	50.9033	80.8532	50.9033	80.4166
52.7344	82.1053	52.7344	83.0032	52.7344	82.5774
54.5654	83.6916	54.5654	84.5844	54.5654	84.1609
56.3965	84.7427	56.3965	85.5956	56.3965	85.1901
58.2275	85.3531	58.2275	86.2849	58.2275	85.8439
60.4248	85.236	60.4248	85.9885	60.4248	85.6285
62.6221	84.9978	62.6221	85.6468	62.6221	85.3344
64.8193	84.3707	64.8193	85.1361	64.8193	84.7702
67.0166	84.0993	67.0166	84.9042	67.0166	84.5204
69.2139	84.2563	69.2139	85.0445	69.2139	84.6683
71.7773	84.5299	71.7773	85.2906	71.7773	84.9269
74.3408	84.7269	74.3408	85.4708	74.3408	85.1148
76.9043	85.0475	76.9043	85.7879	76.9043	85.4335
79.834	85.2884	79.834	86.0457	79.834	85.6835
82.3975	84.5498	82.3975	85.3928	82.3975	84.9917
85.3271	83.8903	85.3271	84.5053	85.3271	84.2087
88.2568	84.6062	88.2568	85.2545	88.2568	84.9424
91.5527	85.3579	91.5527	86.1988	91.5527	85.7987
94.8486	85.0679	94.8486	85.8847	94.8486	85.4955
98.1445	84.3464	98.1445	85.228	98.1445	84.8095
101.44	84.6812	101.44	85.693	101.44	85.2165
105.103	84.0017	105.103	84.9472	105.103	84.5001
108.765	84.2362	108.765	84.8445	108.765	84.551
112.793	84.8015	112.793	85.1136	112.793	84.9604
116.455	84.1772	116.455	84.5043	116.455	84.3438
120.85	84.0241	120.85	84.5176	120.85	84.2779
124.878	83.828	124.878	84.2419	124.878	84.0399
129.272	83.3389	129.272	83.7343	129.272	83.5411
134.033	82.6654	134.033	83.146	134.033	82.9123
138.794	81.9087	138.794	82.4698	138.794	82.1983
143.555	81.3716	143.555	82.3245	143.555	81.8742
148.682	82.1121	148.682	82.3283	148.682	82.2216
153.809	81.6437	153.809	82.0354	153.809	81.8439
159.302	81.5415	159.302	81.9261	159.302	81.7381
164.795	81.3791	164.795	81.6904	164.795	81.5376
170.654	81.2182	170.654	81.6061	170.654	81.4165
176.88	81.1118	176.88	81.422	176.88	81.2697
183.105	80.6887	183.105	81.1422	183.105	80.9213
189.331	80.3398	189.331	80.9361	189.331	80.6482
196.289	80.1251	196.289	80.81	196.289	80.481
202.881	80.0889	202.881	80.7632	202.881	80.4391
210.205	81.0417	210.205	81.2783	210.205	81.1616
217.529	80.9025	217.529	81.1202	217.529	81.0127
225.22	80.6357	225.22	80.8815	225.22	80.7603
233.276	81.0965	233.276	81.2103	233.276	81.1538
241.333	81.0151	241.333	80.8345	241.333	80.9258
250.122	81.2186	250.122	80.8004	250.122	81.0145
258.911	81.6963	258.911	81.0349	258.911	81.3782
268.066	82.0434	268.066	81.6505	268.066	81.8514
277.222	81.6107	277.222	81.5106	277.222	81.5609
287.109	80.493	287.109	80.8514	287.109	80.6759
297.363	80.3374	297.363	80.4342	297.363	80.3861
307.617	81.6442	307.617	81.2909	307.617	81.4711
318.604	81.8205	318.604	80.7077	318.604	81.2996
329.956	82.7831	329.956	81.2406	329.956	82.0799
341.675	82.4494	341.675	80.8942	341.675	81.7411
353.394	82.7908	353.394	81.4985	353.394	82.1925
365.845	82.4273	365.845	81.477	365.845	81.9781
379.028	82.6696	379.028	81.0736	379.028	81.9445
392.212	83.9011	392.212	81.5578	392.212	82.8856
406.128	84.4441	406.128	81.5551	406.128	83.2355
420.41	84.8497	420.41	81.746	420.41	83.5694
435.425	83.6087	435.425	81.1307	435.425	82.5441
450.806	83.5992	450.806	80.2652	450.806	82.2446
466.553	85.2001	466.553	80.6528	466.553	83.4963
483.032	84.8608	483.032	80.9083	483.032	83.3195
499.878	83.3874	499.878	78.875	499.878	81.6926
517.456	85.1617	517.456	80.7827	517.456	83.5022
535.767	85.1225	535.767	79.2722	535.767	83.1159
554.81	85.6474	554.81	80.4864	554.81	83.7923
574.219	84.9844	574.219	80.8345	574.219	83.3874
594.727	84.806	594.727	80.6472	594.727	83.2065
615.601	85.68	615.601	80.7562	615.601	83.8815
637.207	84.7907	637.207	81.6393	637.207	83.4948
659.912	83.2141	659.912	80.0874	659.912	81.9262
682.983	83.4641	682.983	79.8893	682.983	82.0345
707.153	83.833	707.153	80.2465	707.153	82.3999
732.056	82.9031	732.056	79.8533	732.056	81.6406
757.69	84.0927	757.69	80.1219	757.69	82.5462
784.424	82.7537	784.424	80.1796	784.424	81.6546
812.256	82.7926	812.256	78.7017	812.256	81.212
840.82	83.9698	840.82	79.2834	840.82	82.2302
870.483	83.1565	870.483	80.3836	870.483	81.9877
901.245	83.751	901.245	81.5896	901.245	82.8034
933.105	83.0369	933.105	83.2955	933.105	83.1682
966.064	81.2524	966.064	82.5604	966.064	81.9554
1,000.12	81.2691	1,000.12	80.9545	1,000.12	81.1147
1,035.28	81.9937	1,035.28	79.4659	1,035.28	80.9112
1,071.9	82.2404	1,071.9	77.7636	1,071.9	80.555
1,109.62	81.3165	1,109.62	79.7342	1,109.62	80.597
1,148.8	82.7702	1,148.8	78.9329	1,148.8	81.2622
1,189.09	84.1092	1,189.09	79.8062	1,189.09	82.4702
1,231.2	84.3639	1,231.2	77.9429	1,231.2	82.2455
1,274.41	84.0074	1,274.41	77.6206	1,274.41	81.8954
1,319.46	83.1109	1,319.46	77.6953	1,319.46	81.1977
1,365.97	83.7132	1,365.97	77.82	1,365.97	81.6977
1,414.31	84.3057	1,414.31	77.9661	1,414.31	82.2026
1,464.11	84.236	1,464.11	78.1278	1,464.11	82.1774
1,515.75	83.4193	1,515.75	77.4519	1,515.75	81.3888
1,569.21	84.2562	1,569.21	77.6858	1,569.21	82.1105
1,624.51	84.6101	1,624.51	77.7887	1,624.51	82.4202
1,681.64	84.6421	1,681.64	77.412	1,681.64	82.3844
1,740.97	84.9252	1,740.97	76.1273	1,740.97	82.453
1,802.49	85.4036	1,802.49	77.7752	1,802.49	83.085
1,866.21	84.1221	1,866.21	76.645	1,866.21	81.8261
1,931.76	83.2767	1,931.76	78.7968	1,931.76	81.5904
1,999.88	83.3887	1,999.88	79.5745	1,999.88	81.8876
2,070.56	84.0881	2,070.56	80.1998	2,070.56	82.5653
2,143.43	84.0324	2,143.43	80.677	2,143.43	82.671
2,219.24	85.6408	2,219.24	80.0673	2,219.24	83.6928
2,297.24	85.0278	2,297.24	80.4563	2,297.24	83.3177
2,378.54	84.1167	2,378.54	78.0386	2,378.54	82.064
2,462.4	83.965	2,462.4	79.647	2,462.4	82.3219
2,549.19	82.7968	2,549.19	79.1767	2,549.19	81.3535
2,638.92	85.588	2,638.92	81.6375	2,638.92	84.0473
2,731.93	84.3884	2,731.93	80.7208	2,731.93	82.9308
2,828.25	82.9554	2,828.25	79.8645	2,828.25	81.6793
2,928.22	82.3278	2,928.22	80.4244	2,928.22	81.4795
3,031.49	83.2738	3,031.49	81.6947	3,031.49	82.5556
3,138.43	82.9469	3,138.43	82.0198	3,138.43	82.508
3,249.02	82.4119	3,249.02	81.0455	3,249.02	81.7822
3,363.65	81.7495	3,363.65	80.3239	3,363.65	81.0949
3,482.3	84.0235	3,482.3	82.1545	3,482.3	83.1888
3,604.98	84.7394	3,604.98	82.233	3,604.98	83.6646
3,732.06	82.9493	3,732.06	80.5747	3,732.06	81.9223
3,863.89	82.8372	3,863.89	79.9918	3,863.89	81.6435
4,000.12	83.7758	4,000.12	80.3702	4,000.12	82.3986
4,141.11	84.3126	4,141.11	81.1216	4,141.11	83.0038
4,287.23	82.7311	4,287.23	78.3657	4,287.23	81.0752
4,438.11	84.6615	4,438.11	79.6505	4,438.11	82.8419
4,594.85	85.2896	4,594.85	79.6215	4,594.85	83.3212
4,756.71	83.6553	4,756.71	77.8707	4,756.71	81.6624
4,924.44	83.543	4,924.44	78.1597	4,924.44	81.637
5,098.39	83.9587	5,098.39	77.2145	5,098.39	81.7821
5,278.2	83.4314	5,278.2	76.5013	5,278.2	81.2229
5,464.23	83.6665	5,464.23	75.3937	5,464.23	81.2588
5,656.86	84.5736	5,656.86	75.7102	5,656.86	82.0937
5,856.45	82.484	5,856.45	75.5268	5,856.45	80.271
6,062.99	82.2322	6,062.99	77.2789	6,062.99	80.4265
6,276.86	82.1077	6,276.86	77.5624	6,276.86	80.4044
6,498.05	80.452	6,498.05	77.5415	6,498.05	79.2361
6,727.29	79.1447	6,727.29	78.3632	6,727.29	78.7715
6,964.23	79.3132	6,964.23	78.9794	6,964.23	79.1495
7,209.96	78.1639	7,209.96	79.2672	7,209.96	78.7505
7,464.11	78.7458	7,464.11	78.1968	7,464.11	78.48
7,727.42	78.5212	7,727.42	77.5144	7,727.42	78.0469
7,999.88	78.8577	7,999.88	75.6359	7,999.88	77.5389
8,282.23	80.1576	8,282.23	76.0641	8,282.23	78.5763
8,574.1	81.0522	8,574.1	77.6419	8,574.1	79.6735
8,876.59	82.6523	8,876.59	79.7011	8,876.59	81.4227
9,189.7	82.8385	9,189.7	79.3149	9,189.7	81.4247
9,513.79	82.5729	9,513.79	78.9178	9,513.79	81.119
9,849.24	83.3113	9,849.24	78.6317	9,849.24	81.5734
10,196.4	83.5326	10,196.4	77.5968	10,196.4	81.5085
10,556	82.7828	10,556	76.6716	10,556	80.7237
10,928.5	82.8753	10,928.5	77.0324	10,928.5	80.8703
11,313.7	82.9789	11,313.7	77.296	11,313.7	81.0073
11,712.5	82.449	11,712.5	76.3184	11,712.5	80.386
12,125.6	81.8196	12,125.6	75.423	12,125.6	79.7057
12,553.3	81.1792	12,553.3	74.0067	12,553.3	78.9308
12,996.1	79.7082	12,996.1	72.1678	12,996.1	77.4027
13,454.2	78.8987	13,454.2	74.7261	13,454.2	77.2953
13,928.8	77.3989	13,928.8	76.3102	13,928.8	76.8886
14,419.9	77.0222	14,419.9	77.541	14,419.9	77.2893
14,928.6	77.2619	14,928.6	77.6168	14,928.6	77.443
15,454.8	77.1917	15,454.8	75.989	15,454.8	76.6319
16,000.1	76.5801	16,000.1	74.4321	16,000.1	75.6376
16,564.1	77.3937	16,564.1	72.3396	16,564.1	75.5638
17,148.2	79.786	17,148.2	72.0644	17,148.2	77.4538
17,753.2	80.0837	17,753.2	67.529	17,753.2	77.3081
18,379	78.2546	18,379	61.2289	18,379	75.3296
19,027.2	77.115	19,027.2	59.0325	19,027.2	74.1717
19,698.5	72.6664	19,698.5	58.8706	19,698.5	69.8336
19,999.9	64.8885	19,999.9	60.3046	19,999.9	63.1752
