Freq[Hz]     dBSPL  Phase[Deg]
5.00000     -4.670   110.776
5.07273     -4.117   109.825
5.14651     -3.664   108.858
5.22137     -3.110   107.878
5.29732     -2.657   106.884
5.37437     -2.103   105.875
5.45254     -1.551   104.852
5.53185     -1.097   103.814
5.61231     -0.544   102.759
5.69394     -0.090   101.691
5.77676      0.463   100.606
5.86079      1.016    99.506
5.94604      1.469    98.390
6.03252      2.022    97.257
6.12027      2.476    96.107
6.20929      3.029    94.941
6.29961      3.583    93.758
6.39124      4.036    92.558
6.48420      4.589    91.340
6.57851      5.042    90.104
6.67420      5.595    88.850
6.77128      6.149    87.580
6.86977      6.602    86.289
6.96969      7.156    84.979
7.07107      7.609    83.650
7.17392      8.162    82.303
7.27827      8.715    80.934
7.38413      9.169    79.548
7.49154      9.722    78.140
7.60050     10.175    76.711
7.71105     10.729    75.262
7.82321     11.281    73.792
7.93701     11.735    72.300
8.05245     12.288    70.788
8.16958     12.742    69.251
8.28841     13.295    67.694
8.40896     13.849    66.113
8.53128     14.302    64.511
8.65537     14.855    62.884
8.78126     15.308    61.232
8.90899     15.861    59.558
9.03857     16.415    57.858
9.17004     16.868    56.135
9.30342     17.422    54.387
9.43874     17.874    52.612
9.57603     18.428    50.812
9.71532     18.881    48.986
9.85663     19.435    47.132
10.0000     19.988    45.254
10.1455     20.441    43.348
10.2930     20.994    41.411
10.4427     21.447    39.448
10.5946     22.001    37.457
10.7487     22.554    35.437
10.9051     23.008    33.388
11.0637     23.561    31.309
11.2246     24.015    29.199
11.3879     24.567    27.059
11.5535     25.120    24.888
11.7216     25.574    22.686
11.8921     26.127    20.452
12.0650     26.581    18.183
12.2405     27.134    15.886
12.4186     27.687    13.554
12.5992     28.140    11.187
12.7825     28.694     8.787
12.9684     29.147     6.352
13.1570     29.700     3.882
13.3484     30.254     1.376
13.5426     30.706    -1.164
13.7395     31.260    -3.743
13.9394     31.713    -6.359
14.1421     32.267    -9.014
14.3478     32.720   -11.705
14.5565     33.274   -14.436
14.7683     33.827   -17.204
14.9831     34.280   -20.014
15.2010     34.833   -22.866
15.4221     35.286   -25.759
15.6464     35.840   -28.692
15.8740     36.393   -31.668
16.1049     36.847   -34.686
16.3392     37.399   -37.748
16.5768     37.853   -40.856
16.8179     38.406   -44.008
17.0626     38.960   -47.203
17.3107     39.413   -50.449
17.5625     39.966   -53.740
17.8180     40.420   -57.076
18.0771     40.972   -60.464
18.3401     41.426   -63.898
18.6068     41.979   -67.385
18.8775     42.533   -70.919
19.1521     42.986   -74.506
19.4306     43.540   -78.148
19.7133     43.992   -81.839
20.0000     44.545   -85.587
20.2909     45.099   -89.388
20.5860     45.899   -96.021
20.8855     46.596  -102.229
21.1893     47.213  -107.777
21.4975     47.799  -112.548
21.8102     48.143  -116.462
22.1274     48.599  -119.552
22.4492     49.069  -122.049
22.7758     49.599  -124.394
23.1071     50.189  -127.141
23.4432     50.799  -130.689
23.7841     51.299  -135.090
24.1301     51.710  -139.887
24.4811     52.114  -144.522
24.8372     52.499  -148.498
25.1984     52.918  -151.613
25.5649     53.599  -154.154
25.9368     54.317  -156.778
26.3141     55.399  -160.073
26.6968     56.509  -164.202
27.0851     57.599  -168.893
27.4791     58.299  -173.629
27.8788     59.186  -177.842
28.2843     59.699   178.852
28.6957     60.363   176.561
29.1131     60.949   175.033
29.5365     61.799   173.733
29.9661     62.433   172.130
30.4020     63.097   170.002
30.8442     63.699   167.586
31.2929     64.254   165.399
31.7480     64.699   163.646
32.2098     65.304   162.071
32.6783     65.876   159.974
33.1536     66.599   157.088
33.6359     67.014   153.766
34.1251     67.581   150.704
34.6215     67.999   148.312
35.1250     68.516   146.248
35.6359     69.168   143.811
36.1543     69.899   140.783
36.6802     70.483   137.484
37.2137     70.999   134.331
37.7550     71.499   131.372
38.3041     72.139   128.373
38.8613     72.787   125.189
39.4265     73.299   121.875
40.0000     73.699   118.552
40.5818     74.217   115.244
41.1721     74.556   111.944
41.7710     74.999   108.621
42.3785     75.427   105.161
42.9949     75.958   101.490
43.6203     76.288    97.659
44.2548     76.699    93.788
44.8985     76.999    89.897
45.5515     77.438    85.907
46.2141     77.779    81.817
46.8863     78.096    77.745
47.5683     78.299    73.786
48.2602     78.599    69.880
48.9621     78.729    65.913
49.6743     78.999    61.921
50.3968     79.137    57.985
51.1299     79.261    54.021
51.8736     79.399    49.979
52.6281     79.499    46.079
53.3936     79.619    42.347
54.1702     79.807    38.417
54.9581     79.992    34.433
55.7575     79.899    30.953
56.5685     80.046    27.695
57.3914     80.027    24.237
58.2261     80.099    20.896
59.0730     80.168    17.738
59.9323     80.099    14.476
60.8040     80.102    11.417
61.6884     80.199     8.618
62.5857     80.199     5.686
63.4960     80.260     2.793
64.4196     80.199     0.059
65.3566     80.246    -2.775
66.3073     80.199    -5.590
67.2717     80.299    -8.221
68.2502     80.236   -10.948
69.2429     80.207   -13.667
70.2501     80.199   -16.147
71.2719     80.399   -18.621
72.3086     80.454   -20.970
73.3603     80.499   -23.204
74.4274     80.675   -25.593
75.5099     80.580   -27.979
76.6083     80.599   -30.219
77.7226     80.622   -32.455
78.8531     80.667   -34.687
80.0000     80.744   -36.980
81.1636     80.736   -39.191
82.3442     80.699   -41.331
83.5419     80.887   -43.554
84.7570     80.799   -45.628
85.9899     80.980   -47.550
87.2406     81.077   -49.639
88.5096     80.999   -51.777
89.7970     81.120   -53.691
91.1031     81.199   -55.904
92.4282     81.299   -58.088
93.7726     81.299   -60.329
95.1366     81.299   -62.266
96.5204     81.399   -64.446
97.9243     81.399   -66.708
99.3486     81.499   -69.035
100.794     81.599   -71.193
102.260     81.599   -73.167
103.747     81.799   -75.140
105.256     81.799   -77.386
106.787     81.799   -79.456
108.340     81.899   -81.791
109.916     81.899   -83.807
111.515     81.999   -86.039
113.137     82.099   -88.124
114.783     82.156   -90.321
116.452     82.299   -92.605
118.146     82.299   -94.896
119.865     82.299   -97.695
121.608     82.299   -99.218
123.377     82.299  -101.572
125.171     82.379  -103.621
126.992     82.499  -105.677
128.839     82.481  -107.808
130.713     82.405  -110.004
132.615     82.486  -112.277
134.543     82.399  -114.511
136.500     82.399  -116.734
138.486     82.459  -118.746
140.500     82.382  -120.956
142.544     82.299  -123.059
144.617     82.319  -124.915
146.721     82.199  -126.642
148.855     82.216  -128.470
151.020     82.099  -130.121
153.217     82.016  -131.674
155.445     81.949  -133.174
157.706     81.966  -134.847
160.000     81.871  -136.500
162.327     81.666  -137.933
164.688     81.716  -138.861
167.084     81.656  -139.774
169.514     81.713  -140.930
171.980     81.685  -142.221
174.481     81.666  -143.314
177.019     81.670  -144.421
179.594     81.627  -145.530
182.206     81.662  -146.693
184.856     81.670  -148.035
187.545     81.770  -149.367
190.273     81.787  -150.686
193.041     81.913  -152.063
195.849     81.937  -153.537
198.697     81.899  -155.160
201.587     81.961  -156.841
204.520     81.999  -158.508
207.494     82.099  -160.148
210.512     82.099  -162.201
213.574     82.099  -164.292
216.681     82.113  -166.113
219.833     81.957  -167.943
223.030     82.037  -169.684
226.274     81.993  -171.584
229.565     81.884  -173.583
232.905     81.819  -175.404
236.292     81.738  -177.385
239.729     81.709  -179.250
243.216     81.588   179.002
246.754     81.350   177.434
250.343     81.400   175.797
253.984     81.204   174.014
257.678     81.072   172.106
261.426     80.801   170.697
265.229     80.736   169.630
269.087     80.518   168.531
273.001     80.319   168.152
276.972     80.226   167.859
281.000     80.172   167.417
285.088     80.121   167.053
289.234     80.057   166.668
293.441     80.025   166.278
297.709     80.099   165.922
302.040     80.098   165.404
306.433     80.190   164.640
310.890     80.205   163.601
315.412     80.265   162.520
320.000     80.333   161.349
324.655     80.398   160.101
329.377     80.419   158.760
334.168     80.226   157.282
339.028     80.198   155.882
343.959     80.112   154.545
348.962     80.100   153.277
354.038     80.064   152.122
359.188     79.962   151.036
364.412     79.770   150.017
369.713     79.691   149.078
375.090     79.598   148.196
380.546     79.600   147.323
386.081     79.438   146.469
391.697     79.379   145.621
397.394     79.297   144.796
403.175     79.211   144.068
409.039     79.098   143.423
414.989     79.092   142.891
421.025     78.998   142.506
427.149     78.898   142.244
433.362     78.898   142.055
439.665     78.909   141.841
446.060     79.051   141.507
452.548     79.137   140.947
459.131     79.298   140.063
465.809     79.377   138.790
472.584     79.548   137.173
479.458     79.635   135.266
486.432     79.777   133.100
493.507     79.698   130.767
500.686     79.598   128.373
507.968     79.598   126.074
515.357     79.408   123.940
522.853     79.279   121.960
530.458     79.150   120.154
538.174     78.860   118.553
546.002     78.636   117.123
553.943     78.425   115.804
562.001     78.216   114.576
570.175     78.124   113.421
578.469     77.976   112.296
586.883     77.798   111.155
595.419     77.698   109.898
604.080     77.598   108.387
612.866     77.648   106.542
621.780     77.502   104.349
630.824     77.378   101.903
640.000     77.150    99.440
649.309     76.862    97.193
658.753     76.521    95.328
668.335     76.287    93.936
678.056     75.990    92.997
687.919     75.766    92.226
697.925     75.698    91.299
708.077     75.598    90.038
718.376     75.498    88.465
728.825     75.470    86.807
739.426     75.298    85.322
750.181     75.298    84.097
761.093     75.198    82.915
772.163     75.258    81.382
783.394     75.285    79.153
794.789     75.298    76.195
806.349     75.220    73.015
818.078     74.886    70.208
829.977     74.607    68.290
842.050     74.427    67.269
854.298     74.449    66.379
866.724     74.686    64.500
879.330     74.881    60.764
892.120     75.078    55.232
905.097     75.012    48.498
918.262     74.631    40.555
931.618     73.825    31.633
945.169     72.417    22.520
958.917     70.229    15.270
972.864     66.756    16.552
987.015     63.026    39.368
1001.37     63.685    71.503
1015.94     66.601    81.921
1030.71     68.250    77.739
1045.71     68.796    71.362
1060.92     68.600    67.929
1076.35     68.453    67.989
1092.00     68.863    68.170
1107.89     69.298    65.866
1124.00     69.552    62.154
1140.35     69.827    58.896
1156.94     70.196    55.333
1173.77     70.746    49.273
1190.84     70.934    40.683
1208.16     70.419    32.395
1225.73     69.608    27.512
1243.56     68.939    25.832
1261.65     68.844    23.519
1280.00     68.706    19.197
1298.62     68.274    15.181
1317.51     68.075    11.762
1336.67     67.981     6.421
1356.11     67.379     0.300
1375.84     66.663    -1.531
1395.85     66.832    -0.378
1416.15     67.641    -4.340
1436.75     68.039   -12.415
1457.65     67.844   -18.323
1478.85     67.779   -21.643
1500.36     68.037   -26.960
1522.19     67.896   -33.027
1544.33     67.659   -36.346
1566.79     68.067   -41.172
1589.58     68.182   -50.662
1612.70     67.461   -59.007
1636.16     66.852   -62.822
1659.95     66.898   -66.524
1684.10     66.858   -70.855
1708.60     67.355   -75.155
1733.45     67.891   -83.080
1758.66     68.001   -92.621
1784.24     67.825  -100.358
1810.19     67.722  -108.987
1836.52     67.001  -116.356
1863.24     66.762  -120.491
1890.34     66.666  -128.628
1917.83     65.735  -133.309
1945.73     65.903  -129.067
1974.03     67.238  -134.204
2002.74     67.523  -143.574
2031.87     68.063  -150.866
2061.43     68.197  -162.633
2091.41     67.569  -169.620
2121.83     67.843  -174.218
2152.69     67.803   176.516
2184.01     67.519   173.480
2215.77     67.960   168.387
2248.00     67.671   162.747
2280.70     67.905   161.208
2313.87     68.365   155.456
2347.53     68.887   150.506
2381.68     69.552   141.500
2416.32     69.618   133.232
2451.46     69.937   125.406
2487.12     69.665   115.045
2523.30     69.113   106.814
2560.00     68.092   100.359
2597.24     67.150   101.242
2635.01     67.318   103.445
2673.34     68.267   102.582
2712.23     68.960    95.873
2751.68     69.493    88.132
2791.70     69.245    77.239
2832.31     68.627    73.129
2873.50     68.523    69.986
2915.30     68.385    68.501
2957.70     68.597    68.411
3000.72     69.615    65.074
3044.37     69.991    55.701
3088.65     69.947    48.625
3133.58     69.993    41.260
3179.16     69.335    34.916
3225.40     68.898    33.646
3272.31     69.277    33.331
3319.91     70.238    27.485
3368.20     70.896    19.067
3417.19     70.771     5.843
3466.89     69.998     0.110
3517.32     69.719    -4.151
3568.48     69.562    -9.498
3620.39     69.643   -13.218
3673.05     69.792   -21.852
3726.47     69.451   -28.635
3780.67     68.878   -35.783
3835.67     68.418   -42.554
3891.46     67.660   -49.310
3948.06     66.391   -52.997
4005.49     65.686   -52.084
4063.75     65.221   -48.491
4122.86     65.479   -47.945
4182.82     65.591   -52.899
4243.66     65.397   -51.606
4305.39     65.498   -53.455
4368.01     65.774   -54.906
4431.55     66.603   -59.689
4496.01     66.607   -66.872
4561.40     66.563   -70.808
4627.75     66.677   -76.646
4695.06     66.683   -82.855
4763.35     65.909   -89.866
4832.64     65.245   -94.666
4902.93     64.567   -98.540
4974.24     63.824  -101.619
5046.60     62.979  -100.032
5120.00     63.061   -98.660
5194.47     63.299  -101.105
5270.03     62.759  -106.330
5346.68     62.264  -104.309
5424.45     62.640  -104.633
5503.35     63.025  -111.070
5583.40     62.353  -117.633
5664.61     61.220  -119.746
5747.01     60.020  -119.616
5830.60     59.078  -117.182
5915.41     58.881  -112.018
6001.45     59.249  -107.360
6088.74     59.962  -106.499
6177.30     60.715  -110.768
6267.15     61.143  -116.469
6358.31     60.962  -119.162
6450.80     61.237  -120.110
6544.62     61.579  -127.176
6639.82     61.500  -130.711
6736.40     62.001  -135.274
6834.38     62.085  -143.734
6933.79     61.670  -150.836
7034.64     61.190  -156.249
7136.96     61.096  -161.335
7240.77     60.819  -168.529
7346.09     60.598  -173.877
7452.94     60.335   178.644
7561.35     59.502   172.301
7671.33     58.737   166.064
7782.91     57.815   162.553
7896.12     56.846   158.139
8010.97     55.937   159.462
8127.49     55.989   156.958
8245.71     55.692   151.690
8365.65     55.388   147.238
8487.33     54.211   135.648
8610.78     51.760   135.247
8736.03     50.700   141.330
8863.09     50.449   149.148
8992.01     50.438   150.430
9122.80     50.927   153.602
9255.50     51.813   151.461
9390.12     51.997   143.994
9526.70     51.330   133.976
9665.27     49.552   131.421
9805.86     48.734   129.655
9948.49     47.772   130.755
10093.2     47.222   129.285
10240.0     45.902   125.788
10388.9     43.102   129.594
10540.1     41.308   155.072
10693.4     42.226   163.859
10848.9     41.681   171.539
11006.7     42.161  -171.199
11166.8     44.439  -157.324
11329.2     46.889  -151.121
11494.0     49.464  -154.751
11661.2     51.124  -160.181
11830.8     52.587  -168.343
12002.9     53.350  -175.838
12177.5     54.384   177.674
12354.6     55.290   171.733
12534.3     56.436   162.107
12716.6     57.234   151.289
12901.6     57.595   138.362
13089.2     57.553   129.620
13279.6     58.029   120.827
13472.8     59.087   111.012
13668.8     60.035    96.339
13867.6     60.288    77.390
14069.3     60.031    60.789
14273.9     59.998    43.589
14481.5     59.930    23.205
14692.2     59.434    -0.868
14905.9     58.082   -27.737
15122.7     55.713   -52.948
15342.7     52.830   -72.756
15565.8     50.028   -92.565
15792.2     47.067  -114.326
16021.9     43.909  -141.317
16255.0     39.775  -162.849
16491.4     37.231  -177.845
16731.3     37.786   156.667
16974.7     37.855   133.537
17221.6     35.872   137.171
17472.1     35.060   139.207
17726.2     36.016   140.311
17984.0     39.624   135.732
18245.6     41.675   104.644
18511.0     40.723    69.242
18780.2     38.522    41.748
19053.4     39.477   -25.944
19330.5     42.743  -143.275
19611.7     42.051   144.806
19897.0     40.875   130.477
20186.4     40.657   115.927
20480.0     40.439   101.374
20777.9     40.221    86.826
21080.1     40.003    72.274
21386.7     39.786    57.722
21697.8     39.568    43.173
22013.4     39.350    28.623
22333.6     39.132    14.073
22658.4     38.914    -0.482
22988.0     38.696   -15.030
23322.4     38.479   -29.578
23661.6     38.261   -44.131
24005.8     38.043   -58.679
24355.0     37.825   -73.225
24709.2     37.607   -87.782
25068.6     37.389  -102.332
25433.2     37.172  -116.884
25803.2     36.954  -131.429
26178.5     36.736  -145.981
26559.3     36.518  -160.529
26945.6     36.300  -175.082
27337.5     36.082   170.366
27735.2     35.865   155.822
28138.6     35.647   141.269
28547.9     35.429   126.721
28963.1     35.211   112.167
29384.4     34.993    97.618
29811.8     34.775    83.068
30245.4     34.558    68.516
30685.3     34.340    53.963
31131.7     34.122    39.417
31584.5     33.904    24.867
32043.9     33.686    10.314
32510.0     33.468    -4.234
32982.8     33.250   -18.788
33462.6     33.033   -33.337
33949.3     32.815   -47.887
34443.1     32.597   -62.439
34944.1     32.379   -76.988
35452.4     32.161   -91.536
35968.0     31.943  -106.090
36491.2     31.726  -120.639
37022.0     31.508  -135.189
37560.5     31.290  -149.739
38106.8     31.072  -164.290
38661.1     30.854  -178.840
39223.4     30.636   166.608
39793.9     30.419   152.057
