Freq[Hz]     dBSPL  Phase[Deg]
5.00000     -7.619   113.518
5.07273     -7.060   112.519
5.14651     -6.600   111.503
5.22137     -6.041   110.474
5.29732     -5.582   109.429
5.37437     -5.023   108.370
5.45254     -4.465   107.295
5.53185     -4.006   106.205
5.61231     -3.447   105.097
5.69394     -2.988   103.975
5.77676     -2.429   102.836
5.86079     -1.870   101.681
5.94604     -1.411   100.508
6.03252     -0.852    99.318
6.12027     -0.393    98.110
6.20929      0.166    96.885
6.29961      0.725    95.643
6.39124      1.184    94.382
6.48420      1.742    93.103
6.57851      2.201    91.806
6.67420      2.760    90.488
6.77128      3.319    89.154
6.86977      3.779    87.798
6.96969      4.338    86.423
7.07107      4.797    85.027
7.17392      5.355    83.612
7.27827      5.914    82.174
7.38413      6.373    80.718
7.49154      6.932    79.239
7.60050      7.391    77.739
7.71105      7.950    76.217
7.82321      8.508    74.673
7.93701      8.968    73.106
8.05245      9.527    71.517
8.16958      9.986    69.904
8.28841     10.545    68.269
8.40896     11.104    66.608
8.53128     11.563    64.925
8.65537     12.121    63.216
8.78126     12.580    61.481
8.90899     13.139    59.723
9.03857     13.698    57.938
9.17004     14.158    56.129
9.30342     14.717    54.292
9.43874     15.175    52.428
9.57603     15.734    50.537
9.71532     16.193    48.620
9.85663     16.752    46.673
10.0000     17.311    44.701
10.1455     17.770    42.699
10.2930     18.328    40.664
10.4427     18.787    38.601
10.5946     19.346    36.512
10.7487     19.906    34.390
10.9051     20.365    32.238
11.0637     20.924    30.054
11.2246     21.383    27.839
11.3879     21.941    25.591
11.5535     22.500    23.311
11.7216     22.959    20.998
11.8921     23.518    18.651
12.0650     23.977    16.269
12.2405     24.536    13.856
12.4186     25.095    11.406
12.5992     25.554     8.920
12.7825     26.113     6.400
12.9684     26.572     3.843
13.1570     27.131     1.248
13.3484     27.690    -1.384
13.5426     28.148    -4.052
13.7395     28.707    -6.762
13.9394     29.166    -9.508
14.1421     29.725   -12.297
14.3478     30.185   -15.124
14.5565     30.744   -17.993
14.7683     31.303   -20.900
14.9831     31.761   -23.851
15.2010     32.320   -26.847
15.4221     32.779   -29.886
15.6464     33.338   -32.967
15.8740     33.897   -36.092
16.1049     34.356   -39.263
16.3392     34.914   -42.479
16.5768     35.374   -45.743
16.8179     35.933   -49.054
17.0626     36.492   -52.411
17.3107     36.951   -55.820
17.5625     37.510   -59.277
17.8180     37.969   -62.781
18.0771     38.527   -66.340
18.3401     38.986   -69.947
18.6068     39.545   -73.610
18.8775     40.104   -77.323
19.1521     40.564   -81.091
19.4306     41.123   -84.917
19.7133     41.581   -88.794
20.0000     42.140   -92.730
20.2909     42.699   -96.723
20.5860     43.499  -103.517
20.8855     44.199  -109.902
21.1893     44.899  -115.630
21.4975     45.429  -120.586
21.8102     45.799  -124.687
22.1274     46.257  -127.967
22.4492     46.699  -130.656
22.7758     47.280  -133.197
23.1071     47.799  -136.142
23.4432     48.498  -139.889
23.7841     48.904  -144.494
24.1301     49.399  -149.497
24.4811     49.814  -154.339
24.8372     50.199  -158.524
25.1984     50.618  -161.852
25.5649     51.299  -164.606
25.9368     52.099  -167.444
26.3141     53.114  -170.956
26.6968     54.299  -175.302
27.0851     55.303   179.790
27.4791     56.099   174.835
27.8788     56.986   170.403
28.2843     57.499   166.878
28.6957     58.199   164.367
29.1131     58.849   162.621
29.5365     59.699   161.103
29.9661     60.416   159.283
30.4020     60.999   156.939
30.8442     61.699   154.309
31.2929     62.254   151.908
31.7480     62.699   149.945
32.2098     63.399   148.161
32.6783     63.899   145.859
33.1536     64.699   142.771
33.6359     65.199   139.249
34.1251     65.699   135.992
34.6215     66.199   133.407
35.1250     66.716   131.155
35.6359     67.399   128.535
36.1543     68.199   125.328
36.6802     68.799   121.855
37.2137     69.399   118.534
37.7550     69.989   115.412
38.3041     70.599   112.256
38.8613     71.287   108.920
39.4265     71.799   105.461
40.0000     72.299   102.000
40.5818     72.817    98.560
41.1721     73.199    95.135
41.7710     73.699    91.693
42.3785     74.199    88.122
42.9949     74.758    84.347
43.6203     75.099    80.420
44.2548     75.599    76.460
44.8985     75.899    72.488
45.5515     76.399    68.424
46.2141     76.799    64.269
46.8863     77.099    60.137
47.5683     77.399    56.130
48.2602     77.699    52.181
48.9621     77.929    48.180
49.6743     78.263    44.161
50.3968     78.399    40.207
51.1299     78.561    36.232
51.8736     78.734    32.186
52.6281     78.970    28.291
53.3936     79.099    24.571
54.1702     79.299    20.660
54.9581     79.499    16.703
55.7575     79.424    13.257
56.5685     79.646    10.040
57.3914     79.699     6.630
58.2261     79.799     3.344
59.0730     79.899     0.247
59.9323     79.899    -2.947
60.8040     79.999    -5.932
61.6884     80.044    -8.649
62.5857     80.089   -11.497
63.4960     80.160   -14.298
64.4196     80.108   -16.935
65.3566     80.199   -19.667
66.3073     80.205   -22.374
67.2717     80.299   -24.893
68.2502     80.336   -27.503
69.2429     80.307   -30.101
70.2501     80.299   -32.455
71.2719     80.499   -34.801
72.3086     80.599   -37.017
73.3603     80.699   -39.115
74.4274     80.875   -41.365
75.5099     80.880   -43.608
76.6083     80.818   -45.703
77.7226     80.899   -47.793
78.8531     80.967   -49.874
80.0000     81.044   -52.016
81.1636     81.036   -54.074
82.3442     81.099   -56.058
83.5419     81.187   -58.125
84.7570     81.199   -60.041
85.9899     81.299   -61.804
87.2406     81.477   -63.734
88.5096     81.399   -65.712
89.7970     81.499   -67.464
91.1031     81.599   -69.515
92.4282     81.699   -71.537
93.7726     81.699   -73.615
95.1366     81.699   -75.390
96.5204     81.799   -77.407
97.9243     81.799   -79.506
99.3486     81.899   -81.669
100.794     81.999   -83.664
102.260     81.999   -85.475
103.747     82.199   -87.283
105.256     82.099   -89.365
106.787     82.199   -91.270
108.340     82.299   -93.440
109.916     82.199   -95.290
111.515     82.348   -97.355
113.137     82.399   -99.273
114.783     82.399  -101.301
116.452     82.599  -103.416
118.146     82.599  -105.537
119.865     82.499  -108.164
121.608     82.499  -109.515
123.377     82.599  -111.697
125.171     82.579  -113.574
126.992     82.699  -115.457
128.839     82.681  -117.418
130.713     82.599  -119.446
132.615     82.599  -121.555
134.543     82.549  -123.625
136.500     82.599  -125.691
138.486     82.659  -127.571
140.500     82.516  -129.648
142.544     82.466  -131.623
144.617     82.479  -133.379
146.721     82.399  -135.026
148.855     82.366  -136.790
151.020     82.299  -138.401
153.217     82.216  -139.939
155.445     82.149  -141.450
157.706     82.166  -143.160
160.000     82.071  -144.878
162.327     81.916  -146.401
164.688     81.966  -147.432
167.084     81.913  -148.474
169.514     81.970  -149.784
171.980     81.942  -151.240
174.481     81.933  -152.492
177.019     81.899  -153.760
179.594     81.884  -155.039
182.206     81.862  -156.376
184.856     81.899  -157.879
187.545     81.956  -159.345
190.273     81.949  -160.788
193.041     82.099  -162.266
195.849     82.037  -163.815
198.697     81.999  -165.488
201.587     81.999  -167.187
204.520     81.999  -168.839
207.494     82.099  -170.430
210.512     82.066  -172.396
213.574     81.999  -174.363
216.681     82.013  -176.036
219.833     81.891  -177.679
223.030     81.937  -179.191
226.274     81.893   179.166
229.565     81.784   177.444
232.905     81.707   175.917
236.292     81.638   174.237
239.729     81.619   172.691
243.216     81.532   171.251
246.754     81.300   169.969
250.343     81.410   168.600
253.984     81.244   167.036
257.678     81.172   165.290
261.426     80.938   163.981
265.229     80.926   162.934
269.087     80.763   161.780
273.001     80.589   161.277
276.972     80.517   160.802
281.000     80.491   160.129
285.088     80.421   159.505
289.234     80.357   158.863
293.441     80.317   158.249
297.709     80.299   157.720
302.040     80.298   157.091
306.433     80.298   156.286
310.890     80.228   155.285
315.412     80.198   154.320
320.000     80.210   153.339
324.655     80.198   152.343
329.377     80.142   151.309
334.168     79.934   150.219
339.028     79.829   149.252
343.959     79.719   148.390
348.962     79.654   147.630
354.038     79.578   147.009
359.188     79.462   146.491
364.412     79.270   146.063
369.713     79.198   145.697
375.090     79.118   145.349
380.546     79.140   144.962
386.081     79.098   144.503
391.697     79.098   143.939
397.394     79.097   143.254
403.175     79.098   142.497
409.039     78.998   141.637
414.989     78.998   140.695
421.025     78.998   139.720
427.149     78.898   138.728
433.362     78.898   137.723
439.665     78.798   136.631
446.060     78.798   135.488
452.548     78.698   134.268
459.131     78.698   132.915
465.809     78.519   131.422
472.584     78.442   129.856
479.458     78.266   128.280
486.432     78.129   126.747
493.507     77.808   125.388
500.686     77.443   124.352
507.968     77.163   123.789
515.357     76.808   123.738
522.853     76.546   124.150
530.458     76.422   124.852
538.174     76.203   125.539
546.002     76.174   125.909
553.943     76.171   125.740
562.001     76.184   124.936
570.175     76.259   123.546
578.469     76.120   121.775
586.883     75.902   119.977
595.419     75.563   118.525
604.080     75.131   117.797
612.866     74.752   118.186
621.780     74.334   119.926
630.824     74.098   122.825
640.000     74.106   126.086
649.309     74.394   128.710
658.753     74.856   129.961
668.335     75.472   129.503
678.056     75.909   127.517
687.919     76.198   124.422
697.925     76.413   120.768
708.077     76.398   117.166
718.376     76.209   114.024
728.825     76.015   111.678
739.426     75.732   110.183
750.181     75.668   109.264
761.093     75.498   108.424
772.163     75.588   107.283
783.394     75.533   105.764
794.789     75.498   104.106
806.349     75.440   102.725
818.078     75.283   101.766
829.977     75.220   101.021
842.050     75.298   100.090
854.298     75.298    98.790
866.724     75.213    97.487
879.330     74.949    96.934
892.120     74.821    97.986
905.097     74.948   100.537
918.262     75.456   102.485
931.618     76.193   101.908
945.169     76.879    98.400
958.917     77.419    92.693
972.864     77.498    85.963
987.015     77.298    79.362
1001.37     76.823    73.788
1015.94     76.235    69.935
1030.71     75.720    67.774
1045.71     75.531    66.393
1060.92     75.498    64.465
1076.35     75.498    61.126
1092.00     75.542    56.449
1107.89     75.277    51.315
1124.00     74.882    46.826
1140.35     74.602    43.240
1156.94     74.341    39.597
1173.77     74.217    35.014
1190.84     73.985    29.858
1208.16     73.536    25.240
1225.73     73.226    21.158
1243.56     72.957    16.175
1261.65     72.698     9.785
1280.00     72.142     3.968
1298.62     71.467     0.818
1317.51     71.356    -1.464
1336.67     71.573    -6.681
1356.11     71.358   -14.328
1375.84     70.905   -20.629
1395.85     70.629   -24.706
1416.15     70.671   -29.751
1436.75     70.684   -36.167
1457.65     70.486   -41.578
1478.85     70.419   -46.316
1500.36     70.569   -53.493
1522.19     70.245   -62.013
1544.33     69.488   -67.127
1566.79     69.329   -69.279
1589.58     69.661   -74.207
1612.70     69.587   -81.923
1636.16     69.150   -88.054
1659.95     68.929   -91.330
1684.10     69.067   -94.129
1708.60     69.662   -99.004
1733.45     70.199  -106.721
1758.66     70.636  -116.508
1784.24     70.648  -127.013
1810.19     70.384  -135.836
1836.52     70.123  -141.494
1863.24     70.462  -148.950
1890.34     70.141  -159.923
1917.83     69.083  -164.182
1945.73     69.104  -161.771
1974.03     69.997  -165.452
2002.74     70.630  -171.616
2031.87     71.563  -179.929
2061.43     71.771   168.226
2091.41     71.517   160.804
2121.83     71.868   153.607
2152.69     71.855   142.309
2184.01     71.220   134.837
2215.77     70.901   131.823
2248.00     71.237   129.578
2280.70     71.838   122.291
2313.87     71.584   114.155
2347.53     71.604   110.486
2381.68     72.045   103.161
2416.32     72.073    93.914
2451.46     71.598    85.197
2487.12     70.858    82.617
2523.30     71.111    79.052
2560.00     70.762    72.503
2597.24     70.292    69.359
2635.01     70.333    67.678
2673.34     70.834    61.979
2712.23     70.326    56.354
2751.68     70.503    55.535
2791.70     70.432    49.672
2832.31     70.173    45.629
2873.50     69.737    42.508
2915.30     69.372    39.757
2957.70     68.719    44.598
3000.72     70.303    47.744
3044.37     71.084    40.072
3088.65     71.429    33.067
3133.58     71.484    26.852
3179.16     71.244    21.936
3225.40     71.046    19.788
3272.31     71.637    19.146
3319.91     72.657    12.699
3368.20     73.220     1.748
3417.19     72.796    -9.585
3466.89     72.274   -17.233
3517.32     71.571   -19.556
3568.48     71.616   -22.104
3620.39     72.031   -27.770
3673.05     71.645   -38.137
3726.47     70.672   -44.190
3780.67     69.605   -44.568
3835.67     69.422   -41.401
3891.46     70.367   -43.248
3948.06     70.130   -50.167
4005.49     69.681   -52.153
4063.75     69.715   -53.490
4122.86     69.678   -52.844
4182.82     70.348   -55.436
4243.66     71.087   -61.438
4305.39     71.146   -69.288
4368.01     70.731   -75.757
4431.55     70.370   -78.530
4496.01     70.878   -83.026
4561.40     70.256   -89.754
4627.75     69.598   -92.027
4695.06     69.522   -90.962
4763.35     70.082   -91.597
4832.64     70.441   -96.009
4902.93     70.673  -102.231
4974.24     70.520  -108.310
5046.60     70.288  -113.221
5120.00     70.494  -116.823
5194.47     70.263  -124.845
5270.03     69.715  -130.452
5346.68     69.270  -131.625
5424.45     69.329  -136.529
5503.35     69.022  -140.775
5583.40     68.322  -145.642
5664.61     68.008  -145.194
5747.01     67.903  -148.366
5830.60     67.607  -150.478
5915.41     67.846  -151.612
6001.45     68.211  -157.256
6088.74     68.055  -165.638
6177.30     67.532  -170.538
6267.15     67.180  -175.199
6358.31     66.621  -178.710
6450.80     66.198  -178.714
6544.62     66.266   178.367
6639.82     66.058   174.371
6736.40     65.920   172.677
6834.38     66.099   170.428
6933.79     66.138   166.114
7034.64     66.347   161.303
7136.96     66.556   152.523
7240.77     66.035   143.954
7346.09     65.568   138.807
7452.94     64.865   130.411
7561.35     63.863   128.783
7671.33     63.523   126.040
7782.91     62.846   123.249
7896.12     62.457   123.580
8010.97     62.658   118.306
8127.49     62.241   110.765
8245.71     61.634   104.893
8365.65     60.358    99.467
8487.33     58.887   103.502
8610.78     59.396   107.336
8736.03     59.674   103.513
8863.09     59.922    99.430
8992.01     59.433    91.412
9122.80     58.570    91.658
9255.50     58.262    88.272
9390.12     57.879    88.528
9526.70     57.870    85.168
9665.27     57.456    83.531
9805.86     57.828    78.702
9948.49     57.098    72.748
10093.2     56.302    68.713
10240.0     55.251    63.298
10388.9     54.233    63.962
10540.1     52.737    66.274
10693.4     52.336    73.446
10848.9     52.104    80.212
11006.7     53.150    82.153
11166.8     52.902    83.696
11329.2     53.298    88.475
11494.0     54.426    93.955
11661.2     55.863    91.814
11830.8     57.236    87.608
12002.9     58.040    79.514
12177.5     58.562    73.337
12354.6     59.114    68.184
12534.3     60.112    60.245
12716.6     60.469    49.424
12901.6     60.297    39.073
13089.2     59.998    33.693
13279.6     60.279    29.998
13472.8     61.432    23.506
13668.8     62.457    10.813
13867.6     62.898    -4.086
14069.3     63.106   -17.164
14273.9     63.577   -33.199
14481.5     63.533   -53.810
14692.2     62.790   -75.539
14905.9     61.537   -97.234
15122.7     59.702  -117.457
15342.7     57.945  -138.067
15565.8     55.882  -162.150
15792.2     52.963   171.660
16021.9     49.622   139.841
16255.0     46.798    98.204
16491.4     44.943    56.051
16731.3     45.572    16.308
16974.7     46.340   -16.327
17221.6     46.063   -39.385
17472.1     46.159   -58.077
17726.2     45.657   -79.665
17984.0     44.035   -96.407
18245.6     42.180  -111.686
18511.0     40.071  -143.133
18780.2     37.494   150.232
19053.4     37.898    84.019
19330.5     42.595    59.413
19611.7     47.286    35.882
19897.0     49.602    16.550
20186.4     49.294    -0.243
20480.0     48.986   -17.037
20777.9     48.678   -33.826
21080.1     48.370   -50.621
21386.7     48.062   -67.413
21697.8     47.754   -84.202
22013.4     47.446  -100.994
22333.6     47.138  -117.785
22658.4     46.830  -134.581
22988.0     46.522  -151.370
23322.4     46.214  -168.160
23661.6     45.906   175.047
24005.8     45.598   158.259
24355.0     45.290   141.470
24709.2     44.982   124.673
25068.6     44.674   107.881
25433.2     44.366    91.088
25803.2     44.058    74.302
26178.5     43.750    57.509
26559.3     43.442    40.719
26945.6     43.134    23.928
27337.5     42.826     7.132
27735.2     42.518    -9.653
28138.6     42.210   -26.447
28547.9     41.902   -43.236
28963.1     41.594   -60.032
29384.4     41.286   -76.821
29811.8     40.978   -93.612
30245.4     40.670  -110.406
30685.3     40.362  -127.199
31131.7     40.054  -143.985
31584.5     39.746  -160.778
32043.9     39.438  -177.570
32510.0     39.130   165.639
32982.8     38.822   148.843
33462.6     38.514   132.054
33949.3     38.206   115.262
34443.1     37.898    98.469
34944.1     37.590    81.680
35452.4     37.282    64.890
35968.0     36.974    48.095
36491.2     36.666    31.305
37022.0     36.358    14.514
37560.5     36.050    -2.278
38106.8     35.742   -19.069
38661.1     35.434   -35.861
39223.4     35.126   -52.654
39793.9     34.818   -69.446
