Freq[Hz]     dBSPL  Phase[Deg]
5.00000     -7.715   120.880
5.07273     -7.162   119.845
5.14651     -6.708   118.793
5.22137     -6.155   117.727
5.29732     -5.701   116.645
5.37437     -5.148   115.548
5.45254     -4.595   114.435
5.53185     -4.142   113.306
5.61231     -3.588   112.158
5.69394     -3.135   110.996
5.77676     -2.581   109.816
5.86079     -2.028   108.619
5.94604     -1.575   107.405
6.03252     -1.022   106.172
6.12027     -0.568   104.921
6.20929     -0.015   103.653
6.29961      0.539   102.366
6.39124      0.992   101.060
6.48420      1.545    99.735
6.57851      1.998    98.391
6.67420      2.552    97.026
6.77128      3.105    95.644
6.86977      3.559    94.240
6.96969      4.112    92.816
7.07107      4.566    91.370
7.17392      5.118    89.904
7.27827      5.671    88.415
7.38413      6.125    86.907
7.49154      6.678    85.375
7.60050      7.132    83.821
7.71105      7.685    82.245
7.82321      8.238    80.646
7.93701      8.691    79.023
8.05245      9.245    77.377
8.16958      9.698    75.706
8.28841     10.252    74.012
8.40896     10.805    72.293
8.53128     11.259    70.549
8.65537     11.811    68.779
8.78126     12.265    66.982
8.90899     12.818    65.161
9.03857     13.372    63.312
9.17004     13.825    61.438
9.30342     14.379    59.536
9.43874     14.831    57.605
9.57603     15.385    55.647
9.71532     15.838    53.661
9.85663     16.392    51.645
10.0000     16.945    49.602
10.1455     17.399    47.528
10.2930     17.951    45.421
10.4427     18.405    43.284
10.5946     18.958    41.120
10.7487     19.512    38.922
10.9051     19.965    36.693
11.0637     20.519    34.431
11.2246     20.972    32.137
11.3879     21.525    29.809
11.5535     22.078    27.447
11.7216     22.531    25.051
11.8921     23.085    22.621
12.0650     23.538    20.153
12.2405     24.092    17.653
12.4186     24.644    15.117
12.5992     25.098    12.542
12.7825     25.651     9.931
12.9684     26.105     7.282
13.1570     26.658     4.594
13.3484     27.212     1.869
13.5426     27.664    -0.895
13.7395     28.218    -3.702
13.9394     28.671    -6.546
14.1421     29.225    -9.436
14.3478     29.678   -12.364
14.5565     30.232   -15.335
14.7683     30.785   -18.346
14.9831     31.238   -21.404
15.2010     31.791   -24.507
15.4221     32.245   -27.654
15.6464     32.798   -30.846
15.8740     33.352   -34.083
16.1049     33.805   -37.367
16.3392     34.358   -40.699
16.5768     34.811   -44.080
16.8179     35.365   -47.511
17.0626     35.918   -50.986
17.3107     36.372   -54.518
17.5625     36.925   -58.099
17.8180     37.379   -61.729
18.0771     37.931   -65.416
18.3401     38.385   -69.152
18.6068     38.938   -72.946
18.8775     39.491   -76.792
19.1521     39.945   -80.695
19.4306     40.498   -84.658
19.7133     40.951   -88.673
20.0000     41.504   -92.752
20.2909     42.058   -96.889
20.5860     42.799  -103.792
20.8855     43.499  -110.297
21.1893     44.199  -116.153
21.4975     44.729  -121.239
21.8102     45.099  -125.474
22.1274     45.557  -128.893
22.4492     45.969  -131.725
22.7758     46.499  -134.411
23.1071     47.089  -137.506
23.4432     47.699  -141.407
23.7841     48.199  -146.170
24.1301     48.610  -151.332
24.4811     49.099  -156.338
24.8372     49.417  -160.688
25.1984     49.899  -164.184
25.5649     50.599  -167.109
25.9368     51.317  -170.120
26.3141     52.399  -173.806
26.6968     53.509  -178.328
27.0851     54.599   176.588
27.4791     55.395   171.456
27.8788     56.199   166.846
28.2843     56.799   163.144
28.6957     57.499   160.457
29.1131     58.149   158.535
29.5365     58.999   156.843
29.9661     59.716   154.850
30.4020     60.399   152.334
30.8442     61.076   149.537
31.2929     61.599   146.971
31.7480     62.099   144.846
32.2098     62.799   142.904
32.6783     63.399   140.448
33.1536     64.199   137.211
33.6359     64.614   133.544
34.1251     65.199   130.147
34.6215     65.699   127.429
35.1250     66.307   125.049
35.6359     66.999   122.307
36.1543     67.799   118.985
36.6802     68.499   115.403
37.2137     69.037   111.981
37.7550     69.599   108.763
38.3041     70.299   105.519
38.8613     70.999   102.104
39.4265     71.599    98.573
40.0000     72.099    95.046
40.5818     72.699    91.549
41.1721     73.099    88.074
41.7710     73.505    84.591
42.3785     74.099    80.986
42.9949     74.699    77.186
43.6203     75.099    73.240
44.2548     75.599    69.270
44.8985     75.939    65.296
45.5515     76.438    61.237
46.2141     76.899    57.094
46.8863     77.299    52.984
47.5683     77.510    49.003
48.2602     77.899    45.089
48.9621     78.199    41.130
49.6743     78.463    37.162
50.3968     78.699    33.263
51.1299     78.899    29.352
51.8736     79.099    25.376
52.6281     79.299    21.558
53.3936     79.499    17.921
54.1702     79.707    14.100
54.9581     79.992    10.239
55.7575     79.924     6.895
56.5685     80.146     3.787
57.3914     80.227     0.492
58.2261     80.399    -2.675
59.0730     80.468    -5.645
59.9323     80.499    -8.707
60.8040     80.599   -11.554
61.6884     80.744   -14.129
62.5857     80.789   -16.827
63.4960     80.860   -19.474
64.4196     80.808   -21.951
65.3566     80.946   -24.517
66.3073     80.999   -27.052
67.2717     81.099   -29.395
68.2502     81.099   -31.822
69.2429     81.107   -34.233
70.2501     81.182   -36.393
71.2719     81.361   -38.539
72.3086     81.499   -40.549
73.3603     81.599   -42.436
74.4274     81.775   -44.469
75.5099     81.780   -46.489
76.6083     81.718   -48.354
77.7226     81.822   -50.206
78.8531     81.867   -52.045
80.0000     81.999   -53.936
81.1636     82.036   -55.736
82.3442     81.999   -57.456
83.5419     82.187   -59.250
84.7570     82.143   -60.884
85.9899     82.299   -62.358
87.2406     82.477   -63.990
88.5096     82.399   -65.660
89.7970     82.499   -67.095
91.1031     82.599   -68.819
92.4282     82.699   -70.503
93.7726     82.699   -72.232
95.1366     82.699   -73.646
96.5204     82.799   -75.289
97.9243     82.799   -77.002
99.3486     82.899   -78.766
100.794     82.999   -80.347
102.260     82.999   -81.729
103.747     83.099   -83.091
105.256     83.099   -84.711
106.787     83.199   -86.136
108.340     83.199   -87.807
109.916     83.199   -89.140
111.515     83.299   -90.668
113.137     83.399   -92.028
114.783     83.399   -93.477
116.452     83.499   -94.990
118.146     83.537   -96.486
119.865     83.499   -98.468
121.608     83.499   -99.149
123.377     83.499  -100.639
125.171     83.499  -101.802
126.992     83.699  -102.952
128.839     83.681  -104.159
130.713     83.599  -105.417
132.615     83.599  -106.744
134.543     83.599  -108.003
136.500     83.699  -109.244
138.486     83.759  -110.382
140.500     83.632  -111.657
142.544     83.599  -112.777
144.617     83.679  -113.771
146.721     83.599  -114.683
148.855     83.666  -115.673
151.020     83.616  -116.546
153.217     83.616  -117.382
155.445     83.549  -118.225
157.706     83.666  -119.302
160.000     83.614  -120.370
162.327     83.499  -121.276
164.688     83.583  -121.761
167.084     83.570  -122.239
169.514     83.656  -122.962
171.980     83.670  -123.849
174.481     83.666  -124.583
177.019     83.685  -125.339
179.594     83.670  -126.071
182.206     83.674  -126.820
184.856     83.699  -127.732
187.545     83.784  -128.641
190.273     83.787  -129.477
193.041     83.899  -130.339
195.849     83.837  -131.259
198.697     83.874  -132.247
201.587     83.886  -133.248
204.520     83.799  -134.188
207.494     83.899  -135.053
210.512     83.899  -136.232
213.574     83.899  -137.402
216.681     83.913  -138.314
219.833     83.713  -139.140
223.030     83.803  -139.783
226.274     83.782  -140.554
229.565     83.706  -141.409
232.905     83.652  -142.082
236.292     83.616  -142.925
239.729     83.699  -143.618
243.216     83.599  -144.245
246.754     83.470  -144.766
250.343     83.640  -145.401
253.984     83.574  -146.310
257.678     83.552  -147.490
261.426     83.456  -148.306
265.229     83.526  -148.961
269.087     83.445  -149.824
273.001     83.289  -150.120
276.972     83.290  -150.458
281.000     83.327  -151.034
285.088     83.254  -151.581
289.234     83.157  -152.130
293.441     83.117  -152.602
297.709     83.099  -152.913
302.040     83.048  -153.216
306.433     82.981  -153.549
310.890     82.897  -153.899
315.412     82.798  -154.051
320.000     82.787  -154.064
324.655     82.698  -153.962
329.377     82.642  -153.798
334.168     82.441  -153.541
339.028     82.398  -153.164
343.959     82.362  -152.758
348.962     82.400  -152.385
354.038     82.407  -152.060
359.188     82.398  -151.816
364.412     82.324  -151.692
369.713     82.398  -151.709
375.090     82.398  -151.853
380.546     82.400  -152.100
386.081     82.298  -152.405
391.697     82.273  -152.708
397.394     82.184  -152.947
403.175     82.085  -153.059
409.039     81.898  -153.013
414.989     81.810  -152.790
421.025     81.763  -152.402
427.149     81.592  -151.894
433.362     81.498  -151.319
439.665     81.398  -150.702
446.060     81.398  -150.125
452.548     81.298  -149.617
459.131     81.298  -149.162
465.809     81.198  -148.743
472.584     81.198  -148.338
479.458     81.151  -147.924
486.432     81.198  -147.487
493.507     81.098  -147.053
500.686     81.023  -146.677
507.968     81.098  -146.434
515.357     81.028  -146.368
522.853     81.003  -146.491
530.458     81.017  -146.779
538.174     80.855  -147.149
546.002     80.693  -147.502
553.943     80.489  -147.748
562.001     80.271  -147.812
570.175     80.159  -147.665
578.469     79.950  -147.348
586.883     79.772  -146.960
595.419     79.598  -146.604
604.080     79.448  -146.346
612.866     79.398  -146.215
621.780     79.226  -146.199
630.824     79.062  -146.271
640.000     78.870  -146.416
649.309     78.662  -146.647
658.753     78.436  -146.977
668.335     78.239  -147.378
678.056     77.898  -147.694
687.919     77.473  -147.676
697.925     77.102  -147.025
708.077     76.666  -145.558
718.376     76.323  -143.366
728.825     76.170  -140.907
739.426     76.001  -138.807
750.181     76.091  -137.450
761.093     75.861  -136.682
772.163     75.625  -135.869
783.394     75.201  -134.143
794.789     74.832  -130.836
806.349     74.620  -126.286
818.078     74.613  -121.627
829.977     74.910  -118.127
842.050     75.210  -116.154
854.298     75.386  -114.994
866.724     75.398  -113.557
879.330     75.398  -111.037
892.120     75.646  -107.563
905.097     76.165  -104.240
918.262     76.867  -102.943
931.618     77.525  -104.339
945.169     77.906  -107.784
958.917     77.990  -112.088
972.864     77.558  -115.828
987.015     76.806  -117.532
1001.37     75.938  -116.173
1015.94     75.293  -112.179
1030.71     75.038  -107.587
1045.71     75.169  -104.004
1060.92     75.241  -101.588
1076.35     75.334   -99.923
1092.00     75.556   -99.059
1107.89     75.664   -99.310
1124.00     75.598  -100.210
1140.35     75.547  -100.682
1156.94     75.498  -100.578
1173.77     75.704  -101.300
1190.84     75.879  -103.860
1208.16     75.617  -106.892
1225.73     75.186  -107.701
1243.56     74.922  -105.758
1261.65     75.374  -104.583
1280.00     75.912  -106.862
1298.62     75.974  -111.027
1317.51     75.833  -114.341
1336.67     75.683  -116.155
1356.11     75.598  -117.905
1375.84     75.789  -120.851
1395.85     75.971  -125.527
1416.15     75.846  -131.762
1436.75     75.434  -137.308
1457.65     74.734  -139.297
1478.85     74.322  -137.872
1500.36     74.606  -137.958
1522.19     74.756  -141.158
1544.33     74.427  -143.951
1566.79     74.219  -145.251
1589.58     74.085  -147.519
1612.70     73.569  -150.241
1636.16     72.946  -150.867
1659.95     72.643  -150.387
1684.10     72.252  -149.856
1708.60     72.073  -146.970
1733.45     72.505  -143.399
1758.66     73.419  -144.054
1784.24     73.886  -148.079
1810.19     74.098  -152.213
1836.52     74.060  -156.805
1863.24     73.843  -162.184
1890.34     73.230  -165.857
1917.83     72.774  -167.362
1945.73     72.352  -167.390
1974.03     72.376  -166.101
2002.74     72.724  -168.636
2031.87     72.423  -173.140
2061.43     71.884  -172.372
2091.41     72.183  -173.457
2121.83     71.905   179.850
2152.69     70.815   177.337
2184.01     70.276  -178.092
2215.77     70.914  -175.207
2248.00     71.443  -177.924
2280.70     71.407   179.931
2313.87     71.594   179.018
2347.53     71.798   175.700
2381.68     71.603   171.626
2416.32     71.356   171.209
2451.46     71.772   170.180
2487.12     71.879   165.851
2523.30     71.798   163.408
2560.00     72.078   161.485
2597.24     72.198   156.782
2635.01     72.389   154.505
2673.34     73.109   150.331
2712.23     73.457   143.738
2751.68     73.791   137.655
2791.70     74.052   130.542
2832.31     74.180   121.716
2873.50     74.106   116.684
2915.30     74.717   109.273
2957.70     74.489    99.143
3000.72     74.364    91.966
3044.37     74.323    84.914
3088.65     74.573    76.468
3133.58     74.834    68.876
3179.16     75.355    57.427
3225.40     75.077    45.594
3272.31     75.219    35.830
3319.91     75.327    24.793
3368.20     75.588    14.200
3417.19     75.959     0.898
3466.89     75.852   -14.709
3517.32     75.498   -25.935
3568.48     75.300   -36.976
3620.39     75.455   -47.274
3673.05     75.551   -58.963
3726.47     75.619   -71.500
3780.67     75.480   -83.081
3835.67     75.332   -93.299
3891.46     75.490  -103.197
3948.06     75.708  -115.168
4005.49     75.437  -127.438
4063.75     75.298  -136.423
4122.86     75.468  -146.061
4182.82     75.435  -157.612
4243.66     75.350  -167.517
4305.39     75.456  -177.209
4368.01     75.551   172.550
4431.55     75.538   161.201
4496.01     75.557   150.745
4561.40     75.541   141.331
4627.75     75.732   129.979
4695.06     75.728   117.851
4763.35     75.668   106.592
4832.64     75.681    94.880
4902.93     75.545    82.823
4974.24     75.304    71.609
5046.60     75.144    60.211
5120.00     75.285    48.584
5194.47     75.161    35.302
5270.03     75.098    23.413
5346.68     75.148     9.742
5424.45     74.890    -3.916
5503.35     74.784   -16.934
5583.40     74.620   -31.094
5664.61     74.379   -44.825
5747.01     74.117   -58.603
5830.60     73.901   -71.134
5915.41     73.841   -84.984
6001.45     73.607   -99.490
6088.74     73.491  -112.776
6177.30     73.383  -126.676
6267.15     73.272  -140.763
6358.31     73.198  -154.632
6450.80     73.130  -168.798
6544.62     73.007   176.118
6639.82     72.964   161.823
6736.40     73.027   146.195
6834.38     73.083   130.289
6933.79     72.853   113.519
7034.64     72.686    96.912
7136.96     72.419    79.618
7240.77     72.037    63.281
7346.09     71.642    47.470
7452.94     71.213    31.500
7561.35     70.885    16.145
7671.33     70.644     0.410
7782.91     70.464   -15.011
7896.12     70.221   -31.038
8010.97     70.120   -47.364
8127.49     70.198   -64.567
8245.71     70.331   -82.471
8365.65     70.243  -101.920
8487.33     70.165  -122.092
8610.78     69.879  -142.707
8736.03     69.455  -162.429
8863.09     69.080   177.865
8992.01     68.723   158.791
9122.80     68.404   139.028
9255.50     67.958   118.993
9390.12     67.421    99.370
9526.70     66.973    79.530
9665.27     66.400    60.302
9805.86     65.996    40.227
9948.49     65.488    20.096
10093.2     64.716     0.271
10240.0     64.148   -18.458
10388.9     63.602   -36.677
10540.1     63.096   -54.795
10693.4     62.595   -72.272
10848.9     62.438   -89.499
11006.7     62.498  -108.036
11166.8     62.484  -127.530
11329.2     62.665  -146.059
11494.0     63.171  -166.304
11661.2     63.603   171.664
11830.8     63.931   148.669
12002.9     64.338   124.911
12177.5     64.755    99.669
12354.6     65.019    73.561
12534.3     65.145    47.896
12716.6     65.517    22.962
12901.6     66.296    -3.917
13089.2     67.043   -34.217
13279.6     67.689   -67.559
13472.8     68.190  -101.917
13668.8     68.638  -137.663
13867.6     68.879  -176.347
14069.3     68.578   143.382
14273.9     67.907   102.792
14481.5     66.862    63.511
14692.2     65.771    25.145
14905.9     64.599   -14.277
15122.7     63.095   -53.550
15342.7     61.425   -93.183
15565.8     59.394  -132.703
15792.2     56.932  -171.457
16021.9     54.095   153.731
16255.0     51.262   122.993
16491.4     49.040    95.625
16731.3     47.634    67.425
16974.7     46.949    32.481
17221.6     46.268   -13.632
17472.1     45.457   -68.308
17726.2     44.654  -128.505
17984.0     45.235   170.691
18245.6     47.258   110.222
18511.0     49.035    57.153
18780.2     50.584     7.420
19053.4     52.396   -38.625
19330.5     53.776   -82.395
19611.7     55.207  -130.504
19897.0     55.574  -172.397
20186.4     55.180   152.972
20480.0     54.786   118.341
20777.9     54.392    83.717
21080.1     53.999    49.086
21386.7     53.605    14.455
21697.8     53.211   -20.166
22013.4     52.817   -54.794
22333.6     52.423   -89.419
22658.4     52.029  -124.056
22988.0     51.636  -158.677
23322.4     51.242   166.703
23661.6     50.848   132.070
24005.8     50.454    97.449
24355.0     50.060    62.829
24709.2     49.666    28.192
25068.6     49.273    -6.437
25433.2     48.879   -41.070
25803.2     48.485   -75.682
26178.5     48.091  -110.313
26559.3     47.697  -144.936
26945.6     47.303  -179.564
27337.5     46.910   145.803
27735.2     46.516   111.188
28138.6     46.122    76.557
28547.9     45.728    41.935
28963.1     45.334     7.302
29384.4     44.940   -27.323
29811.8     44.547   -61.950
30245.4     44.153   -96.580
30685.3     43.759  -131.211
31131.7     43.365  -165.828
31584.5     42.971   159.544
32043.9     42.577   124.915
32510.0     42.183    90.290
32982.8     41.790    55.653
33462.6     41.396    21.035
33949.3     41.002   -13.596
34443.1     40.608   -48.223
34944.1     40.214   -82.847
35452.4     39.820  -117.470
35968.0     39.427  -152.107
36491.2     39.033   173.270
37022.0     38.639   138.648
37560.5     38.245   104.021
38106.8     37.851    69.390
38661.1     37.457    34.767
39223.4     37.064     0.135
39793.9     36.670   -34.494
