Freq[Hz]     dBSPL  Phase[Deg]
5.00000     -9.288   111.516
5.07273     -8.716   110.512
5.14651     -8.244   109.491
5.22137     -7.673   108.457
5.29732     -7.201   107.406
5.37437     -6.629   106.342
5.45254     -6.058   105.261
5.53185     -5.587   104.165
5.61231     -5.015   103.052
5.69394     -4.543   101.924
5.77676     -3.971   100.779
5.86079     -3.399    99.618
5.94604     -2.929    98.439
6.03252     -2.357    97.243
6.12027     -1.885    96.029
6.20929     -1.313    94.798
6.29961     -0.742    93.550
6.39124     -0.270    92.282
6.48420      0.301    90.996
6.57851      0.773    89.692
6.67420      1.344    88.368
6.77128      1.916    87.027
6.86977      2.388    85.664
6.96969      2.960    84.282
7.07107      3.431    82.879
7.17392      4.002    81.457
7.27827      4.574    80.012
7.38413      5.046    78.547
7.49154      5.617    77.061
7.60050      6.089    75.554
7.71105      6.661    74.023
7.82321      7.232    72.472
7.93701      7.704    70.897
8.05245      8.275    69.300
8.16958      8.747    67.678
8.28841      9.319    66.034
8.40896      9.891    64.365
8.53128     10.362    62.673
8.65537     10.933    60.956
8.78126     11.405    59.212
8.90899     11.977    57.445
9.03857     12.548    55.651
9.17004     13.020    53.832
9.30342     13.592    51.986
9.43874     14.063    50.112
9.57603     14.634    48.212
9.71532     15.106    46.285
9.85663     15.678    44.328
10.0000     16.250    42.345
10.1455     16.721    40.333
10.2930     17.292    38.288
10.4427     17.764    36.215
10.5946     18.336    34.114
10.7487     18.907    31.981
10.9051     19.379    29.818
11.0637     19.951    27.623
11.2246     20.423    25.397
11.3879     20.994    23.137
11.5535     21.565    20.845
11.7216     22.037    18.521
11.8921     22.609    16.162
12.0650     23.081    13.767
12.2405     23.652    11.342
12.4186     24.223     8.880
12.5992     24.695     6.381
12.7825     25.267     3.848
12.9684     25.738     1.277
13.1570     26.310    -1.331
13.3484     26.882    -3.976
13.5426     27.353    -6.658
13.7395     27.924    -9.382
13.9394     28.396   -12.142
14.1421     28.968   -14.945
14.3478     29.440   -17.787
14.5565     30.011   -20.670
14.7683     30.583   -23.593
14.9831     31.054   -26.559
15.2010     31.626   -29.571
15.4221     32.097   -32.625
15.6464     32.669   -35.722
15.8740     33.241   -38.863
16.1049     33.713   -42.050
16.3392     34.284   -45.283
16.5768     34.755   -48.564
16.8179     35.327   -51.892
17.0626     35.899   -55.266
17.3107     36.371   -58.693
17.5625     36.942   -62.167
17.8180     37.414   -65.690
18.0771     37.985   -69.267
18.3401     38.457   -72.893
18.6068     39.028   -76.574
18.8775     39.600   -80.306
19.1521     40.072   -84.093
19.4306     40.644   -87.939
19.7133     41.114   -91.836
20.0000     41.686   -95.793
20.2909     42.258   -99.807
20.5860     43.020  -106.627
20.8855     43.799  -113.040
21.1893     44.499  -118.795
21.4975     45.029  -123.777
21.8102     45.399  -127.903
22.1274     45.857  -131.207
22.4492     46.299  -133.919
22.7758     46.899  -136.481
23.1071     47.489  -139.446
23.4432     48.099  -143.213
23.7841     48.599  -147.835
24.1301     49.099  -152.853
24.4811     49.514  -157.709
24.8372     49.899  -161.905
25.1984     50.399  -165.243
25.5649     51.099  -168.005
25.9368     51.817  -170.849
26.3141     52.899  -174.364
26.6968     54.099  -178.712
27.0851     55.103   176.381
27.4791     55.899   171.429
27.8788     56.799   167.003
28.2843     57.399   163.487
28.6957     58.063   160.987
29.1131     58.699   159.255
29.5365     59.599   157.754
29.9661     60.316   155.953
30.4020     60.997   153.631
30.8442     61.599   151.026
31.2929     62.199   148.654
31.7480     62.699   146.722
32.2098     63.399   144.972
32.6783     63.899   142.707
33.1536     64.699   139.659
33.6359     65.199   136.180
34.1251     65.799   132.969
34.6215     66.245   130.434
35.1250     66.807   128.234
35.6359     67.499   125.669
36.1543     68.299   122.521
36.6802     68.983   119.109
37.2137     69.499   115.853
37.7550     70.099   112.797
38.3041     70.799   109.711
38.8613     71.487   106.448
39.4265     71.999   103.065
40.0000     72.499    99.682
40.5818     73.099    96.323
41.1721     73.399    92.982
41.7710     73.905    89.626
42.3785     74.499    86.144
42.9949     74.999    82.460
43.6203     75.399    78.626
44.2548     75.899    74.762
44.8985     76.199    70.888
45.5515     76.738    66.924
46.2141     77.099    62.871
46.8863     77.499    58.845
47.5683     77.710    54.943
48.2602     78.099    51.102
48.9621     78.299    47.211
49.6743     78.663    43.305
50.3968     78.799    39.464
51.1299     78.999    35.605
51.8736     79.199    31.676
52.6281     79.370    27.900
53.3936     79.519    24.300
54.1702     79.707    20.511
54.9581     79.992    16.677
55.7575     79.899    13.356
56.5685     80.146    10.266
57.3914     80.199     6.984
58.2261     80.299     3.827
59.0730     80.399     0.861
59.9323     80.399    -2.201
60.8040     80.499    -5.052
61.6884     80.599    -7.635
62.5857     80.599   -10.346
63.4960     80.699   -13.010
64.4196     80.608   -15.508
65.3566     80.746   -18.099
66.3073     80.799   -20.664
67.2717     80.869   -23.040
68.2502     80.899   -25.505
69.2429     80.899   -27.957
70.2501     80.899   -30.163
71.2719     81.099   -32.360
72.3086     81.199   -34.424
73.3603     81.299   -36.370
74.4274     81.475   -38.465
75.5099     81.399   -40.553
76.6083     81.399   -42.489
77.7226     81.499   -44.419
78.8531     81.567   -46.338
80.0000     81.644   -48.315
81.1636     81.636   -50.207
82.3442     81.699   -52.023
83.5419     81.787   -53.919
84.7570     81.799   -55.661
85.9899     81.899   -57.247
87.2406     82.077   -58.998
88.5096     81.999   -60.793
89.7970     82.099   -62.359
91.1031     82.199   -64.222
92.4282     82.299   -66.051
93.7726     82.299   -67.933
95.1366     82.299   -69.508
96.5204     82.399   -71.320
97.9243     82.399   -73.210
99.3486     82.499   -75.160
100.794     82.599   -76.936
102.260     82.599   -78.523
103.747     82.699   -80.100
105.256     82.699   -81.945
106.787     82.799   -83.607
108.340     82.799   -85.525
109.916     82.799   -87.118
111.515     82.899   -88.917
113.137     82.999   -90.560
114.783     82.999   -92.304
116.452     83.099   -94.125
118.146     83.137   -95.940
119.865     83.099   -98.253
121.608     83.099   -99.277
123.377     83.099  -101.120
125.171     83.079  -102.645
126.992     83.199  -104.164
128.839     83.199  -105.747
130.713     83.199  -107.385
132.615     83.199  -109.093
134.543     83.099  -110.739
136.500     83.119  -112.366
138.486     83.159  -113.843
140.500     83.099  -115.475
142.544     83.016  -116.964
144.617     83.079  -118.275
146.721     82.999  -119.483
148.855     82.983  -120.771
151.020     82.899  -121.917
153.217     82.833  -123.001
155.445     82.849  -124.071
157.706     82.866  -125.354
160.000     82.799  -126.627
162.327     82.666  -127.724
164.688     82.749  -128.376
167.084     82.713  -129.028
169.514     82.813  -129.935
171.980     82.813  -131.006
174.481     82.799  -131.915
177.019     82.799  -132.852
179.594     82.813  -133.786
182.206     82.824  -134.763
184.856     82.799  -135.915
187.545     82.956  -137.059
190.273     82.924  -138.159
193.041     83.056  -139.295
195.849     83.037  -140.500
198.697     82.999  -141.800
201.587     82.999  -143.120
204.520     82.999  -144.382
207.494     83.049  -145.570
210.512     82.999  -147.087
213.574     82.949  -148.588
216.681     82.913  -149.798
219.833     82.769  -150.923
223.030     82.815  -151.855
226.274     82.748  -152.884
229.565     82.628  -153.956
232.905     82.530  -154.800
236.292     82.449  -155.765
239.729     82.439  -156.530
243.216     82.354  -157.169
246.754     82.150  -157.642
250.343     82.270  -158.167
253.984     82.154  -158.915
257.678     82.132  -159.893
261.426     81.956  -160.471
265.229     82.026  -160.880
269.087     81.945  -161.509
273.001     81.869  -161.600
276.972     81.890  -161.779
281.000     81.927  -162.251
285.088     81.921  -162.766
289.234     81.857  -163.365
293.441     81.817  -163.975
297.709     81.799  -164.500
302.040     81.798  -165.090
306.433     81.723  -165.788
310.890     81.659  -166.572
315.412     81.565  -167.191
320.000     81.510  -167.679
324.655     81.406  -168.029
329.377     81.288  -168.267
334.168     81.034  -168.350
339.028     80.883  -168.189
343.959     80.784  -167.852
348.962     80.700  -167.404
354.038     80.707  -166.874
359.188     80.698  -166.317
364.412     80.597  -165.814
369.713     80.598  -165.458
375.090     80.665  -165.293
380.546     80.753  -165.332
386.081     80.698  -165.578
391.697     80.785  -165.990
397.394     80.722  -166.518
403.175     80.698  -167.053
409.039     80.527  -167.548
414.989     80.485  -167.919
421.025     80.363  -168.074
427.149     80.129  -167.970
433.362     79.963  -167.579
439.665     79.737  -166.868
446.060     79.698  -165.905
452.548     79.537  -164.771
459.131     79.498  -163.534
465.809     79.435  -162.305
472.584     79.515  -161.212
479.458     79.556  -160.325
486.432     79.719  -159.654
493.507     79.743  -159.215
500.686     79.763  -158.993
507.968     79.873  -158.949
515.357     79.873  -159.023
522.853     79.893  -159.158
530.458     79.998  -159.300
538.174     79.898  -159.407
546.002     79.798  -159.460
553.943     79.734  -159.466
562.001     79.698  -159.452
570.175     79.785  -159.461
578.469     79.763  -159.533
586.883     79.746  -159.684
595.419     79.728  -159.899
604.080     79.702  -160.146
612.866     79.798  -160.381
621.780     79.778  -160.586
630.824     79.778  -160.795
640.000     79.826  -161.103
649.309     79.866  -161.641
658.753     79.940  -162.541
668.335     80.072  -163.894
678.056     80.090  -165.607
687.919     79.998  -167.553
697.925     79.939  -169.502
708.077     79.734  -171.170
718.376     79.516  -172.410
728.825     79.346  -173.177
739.426     79.122  -173.620
750.181     79.098  -174.037
761.093     78.998  -174.729
772.163     78.998  -175.818
783.394     78.859  -177.226
794.789     78.701  -178.694
806.349     78.459  -179.818
818.078     78.083   179.652
829.977     77.842   179.720
842.050     77.698  -179.941
854.298     77.698  -179.906
866.724     77.698   179.321
879.330     77.541   177.529
892.120     77.366   175.139
905.097     76.940   172.994
918.262     76.281   171.419
931.618     75.436   171.093
945.169     74.487   172.912
958.917     73.735   177.279
972.864     73.261  -176.688
987.015     73.267  -171.024
1001.37     73.573  -167.446
1015.94     73.898  -166.316
1030.71     74.013  -166.684
1045.71     74.069  -167.266
1060.92     73.929  -167.168
1076.35     73.831  -166.510
1092.00     74.014  -166.356
1107.89     74.098  -167.623
1124.00     74.005  -170.010
1140.35     73.771  -172.220
1156.94     73.311  -173.158
1173.77     73.059  -172.933
1190.84     72.968  -172.679
1208.16     72.870  -173.034
1225.73     72.853  -173.849
1243.56     72.798  -175.351
1261.65     72.874  -178.135
1280.00     72.696   178.493
1298.62     72.184   176.726
1317.51     71.936   177.341
1336.67     72.192   177.416
1356.11     72.390   174.543
1375.84     72.305   170.997
1395.85     72.158   170.058
1416.15     72.475   170.302
1436.75     73.248   167.937
1457.65     73.786   162.443
1478.85     73.813   156.247
1500.36     73.686   150.870
1522.19     73.416   146.577
1544.33     73.024   143.758
1566.79     72.890   141.663
1589.58     72.803   138.650
1612.70     72.353   135.897
1636.16     71.936   136.125
1659.95     72.179   137.262
1684.10     72.571   134.899
1708.60     72.710   130.299
1733.45     72.499   126.763
1758.66     72.459   123.606
1784.24     72.155   120.100
1810.19     71.780   118.935
1836.52     71.629   119.399
1863.24     71.798   118.311
1890.34     71.829   118.159
1917.83     72.462   117.970
1945.73     73.084   112.913
1974.03     73.102   106.826
2002.74     73.103   102.971
2031.87     73.373    98.110
2061.43     73.282    92.678
2091.41     73.006    88.382
2121.83     72.616    86.369
2152.69     72.730    86.038
2184.01     73.177    82.391
2215.77     73.284    76.584
2248.00     73.168    71.375
2280.70     73.039    66.727
2313.87     72.933    61.808
2347.53     72.524    56.987
2381.68     72.116    55.502
2416.32     72.162    53.821
2451.46     72.163    49.723
2487.12     71.852    46.670
2523.30     71.936    44.497
2560.00     72.027    40.135
2597.24     71.789    35.897
2635.01     71.632    32.951
2673.34     71.690    29.437
2712.23     71.381    25.320
2751.68     71.324    24.650
2791.70     71.389    21.085
2832.31     71.404    19.536
2873.50     71.770    15.848
2915.30     71.664    11.216
2957.70     71.424     9.808
3000.72     72.085     8.692
3044.37     72.332     2.391
3088.65     72.627    -1.273
3133.58     72.804    -8.541
3179.16     72.607   -13.251
3225.40     72.500   -17.884
3272.31     72.657   -21.633
3319.91     72.979   -27.937
3368.20     72.818   -35.629
3417.19     72.411   -39.976
3466.89     72.351   -43.870
3517.32     72.492   -46.784
3568.48     72.556   -53.076
3620.39     72.318   -57.561
3673.05     72.365   -61.628
3726.47     72.235   -65.330
3780.67     72.459   -68.525
3835.67     72.748   -73.154
3891.46     72.957   -78.411
3948.06     73.098   -84.223
4005.49     73.343   -89.930
4063.75     73.561   -96.850
4122.86     73.386  -104.455
4182.82     73.248  -110.846
4243.66     73.261  -117.240
4305.39     72.845  -124.055
4368.01     72.510  -129.027
4431.55     72.281  -133.013
4496.01     72.090  -138.840
4561.40     71.752  -142.501
4627.75     71.685  -147.672
4695.06     71.505  -153.266
4763.35     70.881  -157.757
4832.64     70.602  -159.897
4902.93     70.425  -163.675
4974.24     69.895  -166.081
5046.60     70.076  -164.139
5120.00     70.717  -168.266
5194.47     70.714  -172.756
5270.03     71.198  -176.062
5346.68     71.442   176.124
5424.45     71.485   170.314
5503.35     71.586   163.672
5583.40     71.485   155.794
5664.61     71.245   149.085
5747.01     70.927   143.392
5830.60     70.552   137.627
5915.41     70.247   132.997
6001.45     70.098   128.389
6088.74     69.970   122.111
6177.30     69.798   117.273
6267.15     69.735   110.465
6358.31     69.207   104.512
6450.80     68.894   100.547
6544.62     68.630    95.155
6639.82     68.422    91.828
6736.40     68.448    86.025
6834.38     68.140    80.002
6933.79     67.818    74.834
7034.64     67.447    68.303
7136.96     66.865    65.834
7240.77     66.970    63.287
7346.09     67.213    59.730
7452.94     67.605    53.606
7561.35     67.643    44.673
7671.33     67.439    36.246
7782.91     67.071    28.156
7896.12     66.338    22.262
8010.97     66.020    17.445
8127.49     65.620    12.455
8245.71     65.743     7.232
8365.65     65.275     0.700
8487.33     65.174    -5.255
8610.78     64.833   -11.555
8736.03     64.640   -18.044
8863.09     64.297   -24.465
8992.01     64.030   -31.979
9122.80     63.547   -38.538
9255.50     63.036   -44.605
9390.12     62.573   -49.621
9526.70     62.173   -54.385
9665.27     61.642   -59.463
9805.86     61.101   -63.736
9948.49     60.628   -66.145
10093.2     60.583   -67.534
10240.0     60.867   -71.127
10388.9     61.041   -78.756
10540.1     60.772   -87.089
10693.4     60.002   -92.289
10848.9     59.683   -96.426
11006.7     59.432  -100.618
11166.8     59.192  -105.359
11329.2     58.666  -108.607
11494.0     58.563  -109.327
11661.2     59.007  -111.520
11830.8     59.626  -114.889
12002.9     60.374  -120.022
12177.5     61.124  -128.871
12354.6     61.298  -139.783
12534.3     61.207  -148.891
12716.6     61.231  -154.679
12901.6     61.762  -160.813
13089.2     62.510  -169.393
13279.6     63.359   179.120
13472.8     64.319   165.574
13668.8     65.278   148.375
13867.6     65.668   127.729
14069.3     65.322   106.746
14273.9     64.836    87.270
14481.5     64.152    68.100
14692.2     63.303    50.607
14905.9     62.734    32.709
15122.7     62.053    12.060
15342.7     61.144    -9.896
15565.8     59.743   -31.836
15792.2     58.128   -52.576
16021.9     56.487   -73.335
16255.0     54.782   -95.261
16491.4     52.966  -117.414
16731.3     51.520  -141.786
16974.7     50.081  -171.708
17221.6     48.527   159.083
17472.1     46.990   131.244
17726.2     45.736   104.073
17984.0     43.991    77.149
18245.6     42.272    57.182
18511.0     41.102    28.917
18780.2     39.656   -20.676
19053.4     40.514   -92.656
19330.5     44.402  -159.688
19611.7     47.608   151.245
19897.0     49.559   123.988
20186.4     49.168   106.587
20480.0     48.777    89.186
20777.9     48.386    71.790
21080.1     47.995    54.387
21386.7     47.603    36.986
21697.8     47.212    19.591
22013.4     46.821     2.193
22333.6     46.430   -15.206
22658.4     46.039   -32.611
22988.0     45.648   -50.006
23322.4     45.257   -67.402
23661.6     44.865   -84.803
24005.8     44.474  -102.198
24355.0     44.083  -119.595
24709.2     43.692  -137.000
25068.6     43.301  -154.398
25433.2     42.910  -171.799
25803.2     42.518   170.808
26178.5     42.127   153.407
26559.3     41.736   136.011
26945.6     41.345   118.612
27337.5     40.954   101.209
27735.2     40.563    83.816
28138.6     40.172    66.416
28547.9     39.780    49.019
28963.1     39.389    31.616
29384.4     38.998    14.219
29811.8     38.607    -3.179
30245.4     38.216   -20.580
30685.3     37.825   -37.981
31131.7     37.434   -55.374
31584.5     37.042   -72.775
32043.9     36.651   -90.173
32510.0     36.260  -107.572
32982.8     35.869  -124.977
33462.6     35.478  -142.372
33949.3     35.087  -159.770
34443.1     34.695  -177.171
34944.1     34.304   165.432
35452.4     33.913   148.035
35968.0     33.522   130.633
36491.2     33.131   113.236
37022.0     32.740    95.837
37560.5     32.349    78.438
38106.8     31.957    61.040
38661.1     31.566    43.641
39223.4     31.175    26.240
39793.9     30.784     8.841
