Freq[Hz]     dBSPL  Phase[Deg]
5.00000     -6.919   110.110
5.07273     -6.360   109.141
5.14651     -5.900   108.156
5.22137     -5.341   107.159
5.29732     -4.882   106.145
5.37437     -4.323   105.119
5.45254     -3.765   104.076
5.53185     -3.306   103.019
5.61231     -2.747   101.945
5.69394     -2.288   100.857
5.77676     -1.729    99.752
5.86079     -1.170    98.632
5.94604     -0.711    97.494
6.03252     -0.152    96.340
6.12027      0.307    95.170
6.20929      0.866    93.982
6.29961      1.425    92.777
6.39124      1.884    91.554
6.48420      2.442    90.314
6.57851      2.901    89.056
6.67420      3.460    87.778
6.77128      4.019    86.484
6.86977      4.479    85.169
6.96969      5.038    83.836
7.07107      5.497    82.482
7.17392      6.055    81.110
7.27827      6.614    79.716
7.38413      7.073    78.303
7.49154      7.632    76.869
7.60050      8.091    75.415
7.71105      8.650    73.938
7.82321      9.208    72.442
7.93701      9.668    70.922
8.05245     10.227    69.381
8.16958     10.686    67.816
8.28841     11.245    66.230
8.40896     11.804    64.620
8.53128     12.263    62.988
8.65537     12.821    61.331
8.78126     13.280    59.649
8.90899     13.839    57.943
9.03857     14.398    56.212
9.17004     14.858    54.458
9.30342     15.417    52.677
9.43874     15.875    50.869
9.57603     16.434    49.036
9.71532     16.893    47.176
9.85663     17.452    45.288
10.0000     18.011    43.375
10.1455     18.470    41.434
10.2930     19.028    39.461
10.4427     19.487    37.460
10.5946     20.046    35.434
10.7487     20.606    33.376
10.9051     21.065    31.289
11.0637     21.624    29.172
11.2246     22.083    27.023
11.3879     22.641    24.843
11.5535     23.200    22.632
11.7216     23.659    20.389
11.8921     24.218    18.114
12.0650     24.677    15.803
12.2405     25.236    13.464
12.4186     25.795    11.088
12.5992     26.254     8.677
12.7825     26.813     6.233
12.9684     27.272     3.753
13.1570     27.831     1.237
13.3484     28.390    -1.315
13.5426     28.848    -3.902
13.7395     29.407    -6.530
13.9394     29.866    -9.193
14.1421     30.425   -11.897
14.3478     30.885   -14.639
14.5565     31.444   -17.421
14.7683     32.003   -20.240
14.9831     32.461   -23.102
15.2010     33.020   -26.007
15.4221     33.479   -28.953
15.6464     34.038   -31.941
15.8740     34.597   -34.972
16.1049     35.056   -38.046
16.3392     35.614   -41.164
16.5768     36.074   -44.330
16.8179     36.633   -47.540
17.0626     37.192   -50.795
17.3107     37.651   -54.101
17.5625     38.210   -57.453
17.8180     38.669   -60.851
18.0771     39.227   -64.302
18.3401     39.686   -67.800
18.6068     40.245   -71.352
18.8775     40.804   -74.952
19.1521     41.264   -78.605
19.4306     41.823   -82.315
19.7133     42.281   -86.074
20.0000     42.840   -89.892
20.2909     43.399   -93.763
20.5860     44.199  -100.459
20.8855     44.899  -106.735
21.1893     45.599  -112.353
21.4975     46.129  -117.194
21.8102     46.499  -121.178
22.1274     46.957  -124.340
22.4492     47.399  -126.908
22.7758     47.980  -129.325
23.1071     48.499  -132.144
23.4432     49.198  -135.765
23.7841     49.604  -140.239
24.1301     50.099  -145.110
24.4811     50.514  -149.818
24.8372     50.899  -153.868
25.1984     51.318  -157.057
25.5649     51.999  -159.672
25.9368     52.717  -162.369
26.3141     53.799  -165.739
26.6968     54.999  -169.942
27.0851     56.003  -174.706
27.4791     56.795  -179.515
27.8788     57.599   176.199
28.2843     58.199   172.821
28.6957     58.863   170.458
29.1131     59.499   168.859
29.5365     60.334   167.489
29.9661     61.016   165.817
30.4020     61.599   163.619
30.8442     62.299   161.136
31.2929     62.854   158.882
31.7480     63.299   157.064
32.2098     63.904   155.424
32.6783     64.499   153.265
33.1536     65.246   150.318
33.6359     65.699   146.936
34.1251     66.281   143.817
34.6215     66.699   141.368
35.1250     67.216   139.249
35.6359     67.899   136.760
36.1543     68.626   133.682
36.6802     69.283   130.335
37.2137     69.799   127.137
37.7550     70.389   124.134
38.3041     70.999   121.094
38.8613     71.599   117.872
39.4265     72.199   114.522
40.0000     72.599   111.166
40.5818     73.117   107.829
41.1721     73.499   104.501
41.7710     73.905   101.154
42.3785     74.427    97.673
42.9949     74.999    93.983
43.6203     75.299    90.137
44.2548     75.715    86.255
44.8985     76.039    82.356
45.5515     76.538    78.360
46.2141     76.899    74.268
46.8863     77.199    70.198
47.5683     77.410    66.244
48.2602     77.721    62.346
48.9621     77.999    58.391
49.6743     78.263    54.414
50.3968     78.399    50.497
51.1299     78.561    46.555
51.8736     78.699    42.538
52.6281     78.870    38.667
53.3936     78.999    34.967
54.1702     79.199    31.073
54.9581     79.392    27.128
55.7575     79.299    23.690
56.5685     79.499    20.477
57.3914     79.527    17.068
58.2261     79.599    13.778
59.0730     79.668    10.674
59.9323     79.634     7.470
60.8040     79.699     4.470
61.6884     79.799     1.735
62.5857     79.799    -1.133
63.4960     79.860    -3.958
64.4196     79.808    -6.622
65.3566     79.899    -9.384
66.3073     79.899   -12.124
67.2717     79.969   -14.679
68.2502     79.999   -17.327
69.2429     79.999   -19.967
70.2501     79.899   -22.365
71.2719     80.099   -24.757
72.3086     80.199   -27.021
73.3603     80.299   -29.171
74.4274     80.475   -31.474
75.5099     80.399   -33.773
76.6083     80.399   -35.926
77.7226     80.499   -38.076
78.8531     80.567   -40.220
80.0000     80.599   -42.426
81.1636     80.636   -44.550
82.3442     80.599   -46.604
83.5419     80.787   -48.742
84.7570     80.743   -50.731
85.9899     80.899   -52.569
87.2406     80.999   -54.577
88.5096     80.999   -56.635
89.7970     81.099   -58.470
91.1031     81.176   -60.606
92.4282     81.299   -62.716
93.7726     81.299   -64.886
95.1366     81.299   -66.754
96.5204     81.399   -68.868
97.9243     81.399   -71.068
99.3486     81.599   -73.336
100.794     81.699   -75.439
102.260     81.599   -77.362
103.747     81.799   -79.288
105.256     81.799   -81.492
106.787     81.899   -83.524
108.340     81.999   -85.827
109.916     81.999   -87.816
111.515     82.099   -90.026
113.137     82.199   -92.095
114.783     82.199   -94.282
116.452     82.399   -96.562
118.146     82.399   -98.856
119.865     82.368  -101.664
121.608     82.399  -103.202
123.377     82.399  -105.579
125.171     82.399  -107.657
126.992     82.599  -109.749
128.839     82.581  -111.922
130.713     82.499  -114.168
132.615     82.499  -116.497
134.543     82.466  -118.795
136.500     82.499  -121.087
138.486     82.559  -123.166
140.500     82.432  -125.453
142.544     82.349  -127.644
144.617     82.379  -129.582
146.721     82.232  -131.392
148.855     82.266  -133.312
151.020     82.116  -135.054
153.217     82.016  -136.695
155.445     81.949  -138.281
157.706     81.966  -140.038
160.000     81.871  -141.777
162.327     81.649  -143.292
164.688     81.666  -144.291
167.084     81.613  -145.276
169.514     81.613  -146.505
171.980     81.613  -147.864
174.481     81.566  -149.016
177.019     81.542  -150.178
179.594     81.513  -151.344
182.206     81.524  -152.563
184.856     81.499  -153.959
187.545     81.642  -155.338
190.273     81.612  -156.704
193.041     81.756  -158.127
195.849     81.737  -159.643
198.697     81.699  -161.308
201.587     81.736  -163.030
204.520     81.799  -164.734
207.494     81.899  -166.408
210.512     81.799  -168.494
213.574     81.799  -170.614
216.681     81.813  -172.459
219.833     81.702  -174.311
223.030     81.770  -176.074
226.274     81.737  -177.991
229.565     81.639   179.994
232.905     81.552   178.158
236.292     81.472   176.160
239.729     81.449   174.275
243.216     81.332   172.501
246.754     81.090   170.897
250.343     81.150   169.211
253.984     80.964   167.360
257.678     80.852   165.364
261.426     80.592   163.838
265.229     80.526   162.626
269.087     80.318   161.356
273.001     80.119   160.781
276.972     80.035   160.275
281.000     79.981   159.599
285.088     79.921   158.989
289.234     79.857   158.369
293.441     79.817   157.765
297.709     79.799   157.226
302.040     79.865   156.559
306.433     79.898   155.677
310.890     79.905   154.557
315.412     79.898   153.430
320.000     79.995   152.245
324.655     79.998   151.007
329.377     80.019   149.691
334.168     79.855   148.253
339.028     79.798   146.893
343.959     79.741   145.592
348.962     79.700   144.350
354.038     79.707   143.207
359.188     79.598   142.118
364.412     79.417   141.081
369.713     79.334   140.111
375.090     79.285   139.191
380.546     79.200   138.275
386.081     79.098   137.377
391.697     79.042   136.484
397.394     78.972   135.605
403.175     78.898   134.814
409.039     78.716   134.078
414.989     78.698   133.416
421.025     78.698   132.855
427.149     78.598   132.371
433.362     78.598   131.917
439.665     78.515   131.395
446.060     78.639   130.744
452.548     78.665   129.879
459.131     78.781   128.706
465.809     78.819   127.170
472.584     78.931   125.314
479.458     78.956   123.183
486.432     79.051   120.792
493.507     78.958   118.223
500.686     78.798   115.582
507.968     78.688   113.042
515.357     78.458   110.696
522.853     78.246   108.560
530.458     78.050   106.689
538.174     77.703   105.135
546.002     77.426   103.855
553.943     77.166   102.745
562.001     76.962   101.705
570.175     76.898   100.608
578.469     76.746    99.322
586.883     76.598    97.765
595.419     76.498    95.882
604.080     76.340    93.628
612.866     76.227    91.069
621.780     75.922    88.355
630.824     75.538    85.723
640.000     75.070    83.515
649.309     74.550    81.987
658.753     74.029    81.261
668.335     73.683    81.271
678.056     73.359    81.636
687.919     73.198    81.791
697.925     73.198    81.301
708.077     73.169    80.091
718.376     73.098    78.409
728.825     73.019    76.667
739.426     72.805    75.193
750.181     72.798    73.996
761.093     72.698    72.698
772.163     72.778    70.809
783.394     72.779    68.030
794.789     72.676    64.503
806.349     72.401    60.988
818.078     71.877    58.279
829.977     71.429    56.917
842.050     71.157    56.550
854.298     71.201    55.705
866.724     71.413    52.744
879.330     71.486    46.777
892.120     71.344    38.171
905.097     70.662    27.719
918.262     69.317    15.299
931.618     66.998     0.137
945.169     63.025   -23.571
958.917     57.537   -86.443
972.864     59.543  -176.244
987.015     64.608   141.573
1001.37     67.418   121.086
1015.94     68.678   105.436
1030.71     68.933    93.670
1045.71     68.715    86.707
1060.92     68.450    84.517
1076.35     68.712    83.931
1092.00     69.389    81.281
1107.89     69.852    76.234
1124.00     70.059    70.673
1140.35     70.293    65.512
1156.94     70.457    59.668
1173.77     70.548    52.310
1190.84     70.221    44.801
1208.16     69.434    40.082
1225.73     68.904    39.155
1243.56     68.953    38.330
1261.65     69.360    34.045
1280.00     69.472    27.850
1298.62     69.286    22.684
1317.51     69.313    18.387
1336.67     69.498    13.219
1356.11     69.498     7.847
1375.84     69.696     3.358
1395.85     70.287    -2.566
1416.15     70.728   -11.752
1436.75     70.760   -21.136
1457.65     70.558   -27.704
1478.85     70.574   -32.770
1500.36     70.917   -39.704
1522.19     71.066   -48.094
1544.33     70.998   -56.053
1566.79     71.069   -64.362
1589.58     70.946   -73.298
1612.70     70.573   -80.526
1636.16     70.490   -86.265
1659.95     70.756   -93.356
1684.10     70.798  -101.694
1708.60     70.817  -110.389
1733.45     70.630  -119.819
1758.66     70.262  -128.402
1784.24     69.881  -135.336
1810.19     69.671  -142.939
1836.52     69.123  -149.413
1863.24     69.040  -153.802
1890.34     69.073  -159.739
1917.83     69.182  -163.446
1945.73     70.121  -167.321
1974.03     70.950  -179.135
2002.74     70.727   169.425
2031.87     70.789   162.123
2061.43     70.841   152.165
2091.41     70.423   143.810
2121.83     70.261   136.715
2152.69     69.754   129.596
2184.01     69.661   128.576
2215.77     70.468   122.852
2248.00     70.561   114.474
2280.70     70.791   108.619
2313.87     71.061   100.962
2347.53     71.451    93.148
2381.68     71.583    81.038
2416.32     70.896    72.027
2451.46     70.678    65.408
2487.12     70.058    56.595
2523.30     69.116    51.004
2560.00     68.143    51.981
2597.24     68.855    54.712
2635.01     69.585    46.473
2673.34     69.640    37.822
2712.23     69.168    30.277
2751.68     68.960    25.283
2791.70     67.966    18.039
2832.31     67.182    22.399
2873.50     67.599    23.069
2915.30     68.376    23.815
2957.70     69.506    19.164
3000.72     70.449     8.620
3044.37     69.943    -2.898
3088.65     69.413    -7.981
3133.58     69.169   -11.068
3179.16     69.621   -13.799
3225.40     70.211   -22.255
3272.31     70.198   -33.023
3319.91     69.686   -44.754
3368.20     68.727   -50.898
3417.19     67.946   -58.518
3466.89     67.113   -62.242
3517.32     66.334   -64.570
3568.48     65.912   -68.342
3620.39     65.122   -67.775
3673.05     64.962   -66.723
3726.47     65.164   -67.214
3780.67     65.297   -68.776
3835.67     65.434   -75.102
3891.46     65.117   -75.329
3948.06     65.357   -75.974
4005.49     65.918   -77.124
4063.75     67.163   -82.029
4122.86     66.663   -92.179
4182.82     66.089   -97.054
4243.66     66.091   -97.036
4305.39     66.832  -100.964
4368.01     67.002  -109.121
4431.55     66.894  -115.399
4496.01     66.398  -121.381
4561.40     66.174  -122.007
4627.75     66.607  -125.892
4695.06     67.122  -131.753
4763.35     66.783  -143.407
4832.64     65.827  -147.518
4902.93     65.658  -150.730
4974.24     65.264  -156.308
5046.60     64.783  -158.956
5120.00     64.681  -161.044
5194.47     64.731  -164.304
5270.03     64.744  -169.674
5346.68     64.974  -176.499
5424.45     64.522   175.170
5503.35     63.739   167.803
5583.40     62.671   163.590
5664.61     61.939   158.831
5747.01     60.462   154.645
5830.60     58.704   163.194
5915.41     59.757   174.198
6001.45     61.434   168.427
6088.74     61.240   160.072
6177.30     61.392   154.903
6267.15     61.576   143.825
6358.31     60.213   133.641
6450.80     58.363   134.599
6544.62     57.734   142.271
6639.82     57.749   152.541
6736.40     59.128   162.443
6834.38     61.183   156.962
6933.79     62.137   144.156
7034.64     62.472   132.636
7136.96     62.546   118.898
7240.77     61.716   105.587
7346.09     60.256    97.981
7452.94     58.823    96.307
7561.35     58.419    97.098
7671.33     58.054   100.728
7782.91     59.279   101.086
7896.12     59.491    89.849
8010.97     59.114    84.379
8127.49     59.280    74.487
8245.71     58.227    68.244
8365.65     58.022    64.785
8487.33     57.349    58.286
8610.78     56.884    55.480
8736.03     57.037    49.860
8863.09     56.814    44.676
8992.01     56.663    38.992
9122.80     56.299    35.531
9255.50     56.488    25.735
9390.12     55.683    15.234
9526.70     54.695     8.954
9665.27     53.396     4.241
9805.86     53.198     2.985
9948.49     53.135    -2.901
10093.2     52.611   -11.881
10240.0     51.477   -25.013
10388.9     48.753   -31.475
10540.1     46.753   -30.434
10693.4     46.057   -29.402
10848.9     43.961   -28.926
11006.7     41.653   -22.465
11166.8     39.949   -10.618
11329.2     40.260    13.975
11494.0     44.112    40.729
11661.2     46.936    40.837
11830.8     48.925    31.628
12002.9     49.924    25.566
12177.5     51.870    23.660
12354.6     54.207    16.749
12534.3     56.046     1.785
12716.6     57.039   -13.674
12901.6     57.739   -26.586
13089.2     58.555   -39.679
13279.6     59.367   -54.824
13472.8     60.261   -72.164
13668.8     60.573   -91.725
13867.6     60.775  -110.525
14069.3     60.673  -132.781
14273.9     59.907  -155.977
14481.5     58.861  -175.659
14692.2     58.003   162.625
14905.9     56.634   137.041
15122.7     54.306   109.433
15342.7     51.155    84.833
15565.8     48.108    61.639
15792.2     44.765    33.479
16021.9     40.892     8.879
16255.0     38.597   -28.214
16491.4     36.574   -61.547
16731.3     37.471   -93.222
16974.7     38.889  -123.184
17221.6     38.879  -151.631
17472.1     37.413  -166.724
17726.2     35.359  -161.518
17984.0     37.461  -141.226
18245.6     39.282  -173.589
18511.0     38.221   144.192
18780.2     34.911   106.185
19053.4     36.353    44.516
19330.5     39.019   -74.477
19611.7     38.396  -132.687
19897.0     39.720  -133.775
20186.4     39.432  -151.275
20480.0     39.144  -168.778
20777.9     38.856   173.722
21080.1     38.567   156.216
21386.7     38.279   138.712
21697.8     37.991   121.214
22013.4     37.703   103.712
22333.6     37.415    86.211
22658.4     37.127    68.703
22988.0     36.838    51.205
23322.4     36.550    33.705
23661.6     36.262    16.201
24005.8     35.974    -1.296
24355.0     35.686   -18.796
24709.2     35.398   -36.304
25068.6     35.110   -53.806
25433.2     34.821   -71.310
25803.2     34.533   -88.806
26178.5     34.245  -106.309
26559.3     33.957  -123.809
26945.6     33.669  -141.311
27337.5     33.381  -158.817
27735.2     33.092  -176.313
28138.6     32.804   166.184
28547.9     32.516   148.684
28963.1     32.228   131.178
29384.4     31.940   113.678
29811.8     31.652    96.176
30245.4     31.363    78.672
30685.3     31.075    61.169
31131.7     30.787    43.673
31584.5     30.499    26.169
32043.9     30.211     8.667
32510.0     29.923    -8.835
32982.8     29.634   -26.342
33462.6     29.346   -43.840
33949.3     29.058   -61.342
34443.1     28.770   -78.846
34944.1     28.482   -96.346
35452.4     28.194  -113.846
35968.0     27.905  -131.351
36491.2     27.617  -148.851
37022.0     27.329  -166.353
37560.5     27.041   176.145
38106.8     26.753   158.643
38661.1     26.465   141.142
39223.4     26.177   123.638
39793.9     25.888   106.136
