Freq[Hz]     dBSPL  Phase[Deg]
5.00000     -6.877   106.293
5.07273     -6.308   105.342
5.14651     -5.840   104.376
5.22137     -5.271   103.397
5.29732     -4.802   102.403
5.37437     -4.234   101.396
5.45254     -3.666   100.373
5.53185     -3.198    99.336
5.61231     -2.629    98.283
5.69394     -2.161    97.215
5.77676     -1.592    96.131
5.86079     -1.024    95.032
5.94604     -0.556    93.917
6.03252      0.013    92.785
6.12027      0.481    91.636
6.20929      1.050    90.471
6.29961      1.618    89.289
6.39124      2.087    88.090
6.48420      2.654    86.873
6.57851      3.123    85.638
6.67420      3.691    84.385
6.77128      4.260    83.116
6.86977      4.729    81.826
6.96969      5.297    80.518
7.07107      5.766    79.190
7.17392      6.333    77.844
7.27827      6.902    76.476
7.38413      7.370    75.091
7.49154      7.939    73.684
7.60050      8.407    72.257
7.71105      8.976    70.809
7.82321      9.543    69.340
7.93701     10.012    67.849
8.05245     10.581    66.338
8.16958     11.049    64.803
8.28841     11.618    63.247
8.40896     12.186    61.668
8.53128     12.655    60.066
8.65537     13.222    58.441
8.78126     13.691    56.790
8.90899     14.259    55.118
9.03857     14.828    53.420
9.17004     15.297    51.698
9.30342     15.865    49.951
9.43874     16.333    48.177
9.57603     16.901    46.379
9.71532     17.370    44.555
9.85663     17.938    42.703
10.0000     18.507    40.826
10.1455     18.975    38.922
10.2930     19.543    36.986
10.4427     20.012    35.025
10.5946     20.580    33.036
10.7487     21.149    31.017
10.9051     21.617    28.970
11.0637     22.186    26.893
11.2246     22.654    24.785
11.3879     23.222    22.646
11.5535     23.790    20.478
11.7216     24.259    18.277
11.8921     24.827    16.045
12.0650     25.296    13.778
12.2405     25.865    11.483
12.4186     26.432     9.153
12.5992     26.901     6.788
12.7825     27.469     4.390
12.9684     27.938     1.958
13.1570     28.506    -0.511
13.3484     29.075    -3.014
13.5426     29.542    -5.552
13.7395     30.111    -8.130
13.9394     30.580   -10.743
14.1421     31.148   -13.395
14.3478     31.617   -16.084
14.5565     32.185   -18.814
14.7683     32.754   -21.580
14.9831     33.221   -24.386
15.2010     33.790   -27.236
15.4221     34.258   -30.126
15.6464     34.827   -33.057
15.8740     35.396   -36.030
16.1049     35.864   -39.046
16.3392     36.432   -42.105
16.5768     36.900   -45.210
16.8179     37.469   -48.359
17.0626     38.037   -51.552
17.3107     38.506   -54.795
17.5625     39.074   -58.083
17.8180     39.543   -61.417
18.0771     40.110   -64.802
18.3401     40.579   -68.233
18.6068     41.148   -71.717
18.8775     41.716   -75.248
19.1521     42.185   -78.832
19.4306     42.753   -82.471
19.7133     43.221   -86.159
20.0000     43.789   -89.903
20.2909     44.358   -93.701
20.5860     45.120  -100.341
20.8855     45.899  -106.555
21.1893     46.599  -112.107
21.4975     47.129  -116.881
21.8102     47.499  -120.797
22.1274     47.957  -123.887
22.4492     48.399  -126.382
22.7758     48.999  -128.724
23.1071     49.589  -131.467
23.4432     50.199  -135.009
23.7841     50.699  -139.401
24.1301     51.110  -144.189
24.4811     51.599  -148.812
24.8372     51.999  -152.775
25.1984     52.418  -155.875
25.5649     53.099  -158.399
25.9368     53.817  -161.004
26.3141     54.899  -164.280
26.6968     56.099  -168.386
27.0851     57.103  -173.053
27.4791     57.895  -177.763
27.8788     58.699   178.052
28.2843     59.299   174.777
28.6957     59.963   172.517
29.1131     60.599   171.024
29.5365     61.434   169.760
29.9661     62.116   168.195
30.4020     62.797   166.107
30.8442     63.399   163.733
31.2929     63.954   161.590
31.7480     64.399   159.883
32.2098     65.099   158.356
32.6783     65.599   156.310
33.1536     66.346   153.477
33.6359     66.799   150.209
34.1251     67.381   147.204
34.6215     67.799   144.870
35.1250     68.316   142.866
35.6359     68.968   140.492
36.1543     69.699   137.528
36.6802     70.383   134.296
37.2137     70.899   131.212
37.7550     71.399   128.323
38.3041     72.039   125.396
38.8613     72.699   122.287
39.4265     73.233   119.049
40.0000     73.676   115.804
40.5818     74.199   112.577
41.1721     74.499   109.358
41.7710     74.905   106.119
42.3785     75.499   102.745
42.9949     75.999    99.161
43.6203     76.299    95.419
44.2548     76.715    91.639
44.8985     77.039    87.841
45.5515     77.499    83.944
46.2141     77.879    79.951
46.8863     78.196    75.975
47.5683     78.399    72.116
48.2602     78.699    68.310
48.9621     78.899    64.445
49.6743     79.163    60.556
50.3968     79.299    56.725
51.1299     79.461    52.867
51.8736     79.599    48.932
52.6281     79.699    45.142
53.3936     79.819    41.520
54.1702     80.007    37.701
54.9581     80.192    33.829
55.7575     80.099    30.463
56.5685     80.299    27.320
57.3914     80.327    23.978
58.2261     80.399    20.754
59.0730     80.468    17.713
59.9323     80.399    14.571
60.8040     80.402    11.631
61.6884     80.544     8.954
62.5857     80.499     6.143
63.4960     80.560     3.372
64.4196     80.508     0.761
65.3566     80.599    -1.949
66.3073     80.599    -4.638
67.2717     80.669    -7.144
68.2502     80.599    -9.744
69.2429     80.599   -12.337
70.2501     80.599   -14.689
71.2719     80.761   -17.036
72.3086     80.854   -19.255
73.3603     80.899   -21.361
74.4274     81.075   -23.620
75.5099     80.999   -25.876
76.6083     80.999   -27.985
77.7226     81.099   -30.091
78.8531     81.067   -32.191
80.0000     81.199   -34.353
81.1636     81.199   -36.432
82.3442     81.199   -38.440
83.5419     81.299   -40.532
84.7570     81.299   -42.473
85.9899     81.399   -44.262
87.2406     81.577   -46.219
88.5096     81.499   -48.224
89.7970     81.599   -50.004
91.1031     81.699   -52.084
92.4282     81.799   -54.135
93.7726     81.799   -56.242
95.1366     81.799   -58.046
96.5204     81.899   -60.091
97.9243     81.899   -62.219
99.3486     81.999   -64.412
100.794     82.099   -66.435
102.260     82.099   -68.274
103.747     82.299   -70.110
105.256     82.299   -72.220
106.787     82.399   -74.151
108.340     82.399   -76.348
109.916     82.399   -78.223
111.515     82.499   -80.313
113.137     82.599   -82.254
114.783     82.599   -84.304
116.452     82.799   -86.439
118.146     82.799   -88.576
119.865     82.768   -91.218
121.608     82.799   -92.579
123.377     82.799   -94.765
125.171     82.779   -96.640
126.992     82.899   -98.514
128.839     82.899  -100.456
130.713     82.899  -102.453
132.615     82.899  -104.518
134.543     82.782  -106.527
136.500     82.799  -108.511
138.486     82.859  -110.298
140.500     82.732  -112.251
142.544     82.649  -114.066
144.617     82.679  -115.647
146.721     82.516  -117.095
148.855     82.566  -118.611
151.020     82.416  -119.947
153.217     82.316  -121.182
155.445     82.249  -122.367
157.706     82.266  -123.731
160.000     82.171  -125.056
162.327     81.999  -126.174
164.688     82.049  -126.823
167.084     82.013  -127.454
169.514     82.070  -128.327
171.980     82.056  -129.358
174.481     82.066  -130.232
177.019     82.056  -131.141
179.594     82.041  -132.060
182.206     82.062  -133.043
184.856     82.099  -134.226
187.545     82.213  -135.428
190.273     82.212  -136.622
193.041     82.356  -137.887
195.849     82.337  -139.256
198.697     82.299  -140.771
201.587     82.336  -142.345
204.520     82.311  -143.899
207.494     82.399  -145.414
210.512     82.399  -147.318
213.574     82.336  -149.235
216.681     82.313  -150.864
219.833     82.157  -152.455
223.030     82.192  -153.899
226.274     82.093  -155.446
229.565     81.950  -157.034
232.905     81.819  -158.379
236.292     81.705  -159.819
239.729     81.639  -161.039
243.216     81.477  -162.075
246.754     81.210  -162.870
250.343     81.270  -163.647
253.984     81.094  -164.550
257.678     81.002  -165.590
261.426     80.792  -166.147
265.229     80.826  -166.469
269.087     80.745  -166.977
273.001     80.669  -166.948
276.972     80.690  -167.040
281.000     80.727  -167.489
285.088     80.821  -168.079
289.234     80.811  -168.872
293.441     80.875  -169.799
297.709     80.972  -170.761
302.040     80.998  -171.904
306.433     80.998  -173.285
310.890     81.005  -174.879
315.412     80.915  -176.385
320.000     80.902  -177.812
324.655     80.773  -179.127
329.377     80.650   179.680
334.168     80.312   178.616
339.028     80.106   177.889
343.959     79.891   177.478
348.962     79.738   177.346
354.038     79.614   177.485
359.188     79.462   177.818
364.412     79.277   178.249
369.713     79.198   178.631
375.090     79.198   178.852
380.546     79.293   178.833
386.081     79.278   178.520
391.697     79.298   177.911
397.394     79.297   177.037
403.175     79.298   176.030
409.039     79.121   174.919
414.989     79.098   173.795
421.025     78.980   172.784
427.149     78.742   171.944
433.362     78.569   171.309
439.665     78.326   170.849
446.060     78.210   170.556
452.548     78.026   170.355
459.131     77.920   170.153
465.809     77.735   169.869
472.584     77.698   169.460
479.458     77.498   168.922
486.432     77.493   168.269
493.507     77.273   167.555
500.686     77.048   166.849
507.968     76.893   166.228
515.357     76.643   165.725
522.853     76.431   165.329
530.458     76.269   165.017
538.174     75.960   164.754
546.002     75.707   164.498
553.943     75.457   164.219
562.001     75.221   163.917
570.175     75.059   163.602
578.469     74.820   163.287
586.883     74.563   162.975
595.419     74.333   162.645
604.080     74.090   162.257
612.866     73.952   161.788
621.780     73.722   161.241
630.824     73.458   160.650
640.000     73.222   160.066
649.309     72.970   159.497
658.753     72.752   158.873
668.335     72.650   158.053
678.056     72.467   156.916
687.919     72.262   155.338
697.925     72.120   153.327
708.077     71.826   151.045
718.376     71.480   148.655
728.825     71.112   146.342
739.426     70.598   144.188
750.181     70.195   142.109
761.093     69.631   139.892
772.163     69.131   137.389
783.394     68.485   134.573
794.789     67.770   131.662
806.349     66.972   129.103
818.078     66.110   126.850
829.977     65.514   123.978
842.050     65.166   118.530
854.298     64.949   108.349
866.724     64.771    91.970
879.330     64.612    68.183
892.120     64.984    38.589
905.097     66.026     7.374
918.262     67.526   -21.596
931.618     68.971   -46.741
945.169     70.020   -68.308
958.917     70.629   -86.798
972.864     70.566  -102.216
987.015     69.985  -113.867
1001.37     69.095  -120.853
1015.94     68.310  -123.093
1030.71     68.013  -123.202
1045.71     68.253  -124.696
1060.92     68.367  -128.738
1076.35     68.136  -133.876
1092.00     67.698  -138.339
1107.89     66.943  -141.168
1124.00     66.102  -142.026
1140.35     65.351  -140.250
1156.94     64.813  -135.283
1173.77     65.115  -129.660
1190.84     65.943  -127.775
1208.16     66.468  -130.158
1225.73     66.559  -133.507
1243.56     66.347  -134.918
1261.65     66.540  -135.157
1280.00     66.934  -136.895
1298.62     67.133  -140.221
1317.51     67.325  -143.708
1336.67     67.560  -147.840
1356.11     67.504  -153.509
1375.84     67.045  -158.097
1395.85     66.554  -157.490
1416.15     66.951  -154.649
1436.75     67.980  -156.500
1457.65     68.482  -162.464
1478.85     68.277  -167.238
1500.36     68.137  -169.162
1522.19     68.198  -170.418
1544.33     68.293  -171.598
1566.79     68.690  -173.006
1589.58     69.188  -176.798
1612.70     69.215   177.634
1636.16     68.870   173.830
1659.95     68.719   173.019
1684.10     68.881   172.573
1708.60     69.299   170.069
1733.45     69.398   166.282
1758.66     69.406   163.804
1784.24     69.566   162.711
1810.19     69.998   160.984
1836.52     70.429   158.572
1863.24     71.144   153.831
1890.34     71.333   146.557
1917.83     71.210   142.302
1945.73     71.560   139.925
1974.03     72.057   133.246
2002.74     72.042   126.043
2031.87     72.144   120.432
2061.43     72.087   113.715
2091.41     71.735   107.599
2121.83     71.279   102.282
2152.69     70.785    98.161
2184.01     70.559    94.207
2215.77     70.124    88.657
2248.00     69.473    86.228
2280.70     69.195    84.988
2313.87     69.113    84.048
2347.53     69.346    81.067
2381.68     69.131    75.816
2416.32     68.878    72.797
2451.46     68.598    68.391
2487.12     67.895    66.489
2523.30     67.632    66.997
2560.00     67.718    66.778
2597.24     67.827    64.955
2635.01     68.067    62.794
2673.34     68.545    59.633
2712.23     68.983    52.592
2751.68     68.455    45.260
2791.70     67.777    44.808
2832.31     67.637    44.815
2873.50     68.006    47.021
2915.30     69.156    44.799
2957.70     69.934    35.516
3000.72     69.555    24.740
3044.37     68.631    20.947
3088.65     68.122    20.349
3133.58     68.494    21.881
3179.16     69.185    17.268
3225.40     69.447    10.709
3272.31     69.344     4.774
3319.91     69.167    -0.440
3368.20     68.874    -0.475
3417.19     69.678    -3.300
3466.89     70.248    -9.927
3517.32     70.484   -18.461
3568.48     70.031   -26.100
3620.39     69.671   -28.252
3673.05     69.838   -32.828
3726.47     69.699   -37.069
3780.67     69.817   -40.806
3835.67     69.952   -45.687
3891.46     70.080   -51.046
3948.06     70.165   -55.626
4005.49     70.245   -61.640
4063.75     70.278   -65.493
4122.86     70.558   -72.136
4182.82     70.250   -79.124
4243.66     70.165   -84.710
4305.39     69.875   -89.052
4368.01     70.012   -93.200
4431.55     70.041  -100.080
4496.01     69.918  -107.865
4561.40     69.189  -113.334
4627.75     68.964  -115.734
4695.06     68.964  -122.166
4763.35     68.272  -127.951
4832.64     67.813  -130.993
4902.93     67.330  -134.023
4974.24     67.145  -135.067
5046.60     67.249  -137.504
5120.00     67.274  -142.854
5194.47     66.997  -144.994
5270.03     67.484  -150.062
5346.68     67.321  -158.158
5424.45     66.734  -162.489
5503.35     66.744  -165.650
5583.40     66.817  -173.366
5664.61     66.360   178.402
5747.01     65.817   173.957
5830.60     65.460   168.860
5915.41     64.723   162.062
6001.45     64.004   158.695
6088.74     63.614   155.037
6177.30     62.856   150.607
6267.15     62.171   148.056
6358.31     61.851   146.096
6450.80     61.535   144.790
6544.62     61.357   142.042
6639.82     61.267   139.255
6736.40     61.180   133.696
6834.38     60.572   129.394
6933.79     60.298   127.303
7034.64     60.052   122.805
7136.96     59.462   121.986
7240.77     59.391   119.810
7346.09     59.298   119.437
7452.94     60.012   115.985
7561.35     60.414   108.321
7671.33     60.498   101.014
7782.91     60.483    91.520
7896.12     59.996    80.782
8010.97     59.483    70.466
8127.49     58.380    60.861
8245.71     57.028    51.382
8365.65     55.292    46.459
8487.33     53.991    41.700
8610.78     52.173    45.044
8736.03     51.237    49.532
8863.09     50.494    53.788
8992.01     51.018    56.839
9122.80     51.634    57.875
9255.50     52.349    54.929
9390.12     52.821    47.684
9526.70     53.185    42.489
9665.27     53.224    33.578
9805.86     52.911    25.793
9948.49     52.663    15.014
10093.2     52.163     6.966
10240.0     51.161    -3.797
10388.9     49.807   -11.020
10540.1     48.160   -17.442
10693.4     46.006   -20.135
10848.9     43.787   -10.815
11006.7     43.651     1.314
11166.8     45.299     2.349
11329.2     45.385    -0.614
11494.0     45.605    -5.278
11661.2     46.675   -10.232
11830.8     47.041   -18.892
12002.9     47.805   -35.399
12177.5     47.695   -51.687
12354.6     47.049   -77.225
12534.3     46.349  -109.751
12716.6     45.215  -156.277
12901.6     45.047   151.581
13089.2     46.753    98.097
13279.6     49.108    49.129
13472.8     49.817     8.882
13668.8     50.394   -22.676
13867.6     50.773   -56.556
14069.3     49.305   -97.427
14273.9     46.256  -143.776
14481.5     41.324   155.783
14692.2     38.205    55.695
14905.9     40.970   -16.667
15122.7     44.661   -61.507
15342.7     46.354  -101.739
15565.8     46.422  -138.710
15792.2     45.297   179.924
16021.9     43.900   144.126
16255.0     43.001   115.339
16491.4     41.983    97.525
16731.3     42.491    84.278
16974.7     43.599    63.184
17221.6     44.962    34.485
17472.1     43.836     3.276
17726.2     42.047   -14.156
17984.0     42.688   -21.895
18245.6     43.484   -38.140
18511.0     44.562   -52.513
18780.2     44.308   -84.098
19053.4     39.590  -156.234
19330.5     33.014    38.814
19611.7     32.853   -58.899
19897.0     34.565   -89.068
20186.4     34.365  -123.588
20480.0     34.166  -158.111
20777.9     33.966   167.372
21080.1     33.766   132.850
21386.7     33.566    98.327
21697.8     33.366    63.814
22013.4     33.167    29.294
22333.6     32.967    -5.223
22658.4     32.767   -39.752
22988.0     32.567   -74.264
23322.4     32.367  -108.777
23661.6     32.167  -143.301
24005.8     31.968  -177.814
24355.0     31.768   147.673
24709.2     31.568   113.145
25068.6     31.368    78.624
25433.2     31.168    44.099
25803.2     30.969     9.595
26178.5     30.769   -24.928
26559.3     30.569   -59.443
26945.6     30.369   -93.963
27337.5     30.169  -128.488
27735.2     29.970  -162.994
28138.6     29.770   162.483
28547.9     29.570   127.968
28963.1     29.370    93.444
29384.4     29.170    58.927
29811.8     28.971    24.408
30245.4     28.771   -10.114
30685.3     28.571   -44.637
31131.7     28.371   -79.146
31584.5     28.171  -113.666
32043.9     27.972  -148.187
32510.0     27.772   177.297
32982.8     27.572   142.768
33462.6     27.372   108.257
33949.3     27.172    73.735
34443.1     26.973    39.216
34944.1     26.773     4.699
35452.4     26.573   -29.815
35968.0     26.373   -64.344
36491.2     26.173   -98.859
37022.0     25.973  -133.373
37560.5     25.774  -167.892
38106.8     25.574   157.586
38661.1     25.374   123.071
39223.4     25.174    88.546
39793.9     24.974    54.026
