Freq[Hz]     dBSPL  Phase[Deg]
5.00000     -8.499   107.598
5.07273     -7.924   106.610
5.14651     -7.449   105.606
5.22137     -6.874   104.590
5.29732     -6.399   103.557
5.37437     -5.824   102.510
5.45254     -5.250   101.448
5.53185     -4.775   100.370
5.61231     -4.200    99.275
5.69394     -3.726    98.166
5.77676     -3.151    97.040
5.86079     -2.576    95.898
5.94604     -2.102    94.739
6.03252     -1.527    93.563
6.12027     -1.052    92.369
6.20929     -0.477    91.159
6.29961      0.098    89.931
6.39124      0.573    88.685
6.48420      1.147    87.420
6.57851      1.622    86.138
6.67420      2.197    84.835
6.77128      2.772    83.517
6.86977      3.247    82.177
6.96969      3.822    80.817
7.07107      4.297    79.438
7.17392      4.871    78.039
7.27827      5.446    76.618
7.38413      5.921    75.178
7.49154      6.496    73.717
7.60050      6.971    72.234
7.71105      7.546    70.730
7.82321      8.120    69.204
7.93701      8.595    67.655
8.05245      9.170    66.085
8.16958      9.645    64.490
8.28841     10.220    62.873
8.40896     10.795    61.232
8.53128     11.270    59.569
8.65537     11.844    57.880
8.78126     12.319    56.165
8.90899     12.894    54.427
9.03857     13.469    52.663
9.17004     13.944    50.874
9.30342     14.519    49.059
9.43874     14.992    47.216
9.57603     15.567    45.348
9.71532     16.042    43.452
9.85663     16.617    41.528
10.0000     17.192    39.579
10.1455     17.667    37.600
10.2930     18.241    35.589
10.4427     18.716    33.550
10.5946     19.291    31.485
10.7487     19.866    29.387
10.9051     20.341    27.260
11.0637     20.916    25.102
11.2246     21.391    22.912
11.3879     21.965    20.690
11.5535     22.540    18.437
11.7216     23.015    16.150
11.8921     23.590    13.831
12.0650     24.065    11.476
12.2405     24.640     9.092
12.4186     25.214     6.670
12.5992     25.689     4.213
12.7825     26.264     1.722
12.9684     26.739    -0.806
13.1570     27.314    -3.371
13.3484     27.889    -5.972
13.5426     28.363    -8.609
13.7395     28.938   -11.287
13.9394     29.413   -14.001
14.1421     29.988   -16.758
14.3478     30.463   -19.553
14.5565     31.038   -22.388
14.7683     31.613   -25.261
14.9831     32.087   -28.178
15.2010     32.662   -31.139
15.4221     33.136   -34.143
15.6464     33.711   -37.188
15.8740     34.286   -40.277
16.1049     34.761   -43.411
16.3392     35.335   -46.589
16.5768     35.810   -49.816
16.8179     36.385   -53.088
17.0626     36.960   -56.406
17.3107     37.435   -59.776
17.5625     38.010   -63.192
17.8180     38.485   -66.656
18.0771     39.059   -70.174
18.3401     39.534   -73.739
18.6068     40.109   -77.359
18.8775     40.684   -81.028
19.1521     41.159   -84.752
19.4306     41.734   -88.534
19.7133     42.208   -92.366
20.0000     42.783   -96.257
20.2909     43.358  -100.203
20.5860     44.120  -106.972
20.8855     44.896  -113.327
21.1893     45.513  -119.023
21.4975     46.099  -123.943
21.8102     46.499  -128.006
22.1274     46.957  -131.244
22.4492     47.399  -133.890
22.7758     47.999  -136.384
23.1071     48.589  -139.279
23.4432     49.199  -142.974
23.7841     49.699  -147.523
24.1301     50.199  -152.466
24.4811     50.699  -157.247
24.8372     51.017  -161.366
25.1984     51.499  -164.625
25.5649     52.199  -167.308
25.9368     52.917  -170.072
26.3141     53.999  -173.507
26.6968     55.199  -177.772
27.0851     56.299   177.403
27.4791     56.999   172.534
27.8788     57.899   168.192
28.2843     58.499   164.759
28.6957     59.163   162.343
29.1131     59.799   160.695
29.5365     60.699   159.278
29.9661     61.416   157.560
30.4020     62.097   155.321
30.8442     62.699   152.799
31.2929     63.299   150.509
31.7480     63.799   148.658
32.2098     64.404   146.989
32.6783     64.999   144.803
33.1536     65.799   141.833
33.6359     66.214   138.431
34.1251     66.799   135.295
34.6215     67.299   132.834
35.1250     67.907   130.706
35.6359     68.499   128.212
36.1543     69.299   125.132
36.6802     69.983   121.788
37.2137     70.499   118.596
37.7550     71.099   115.603
38.3041     71.799   112.577
38.8613     72.399   109.373
39.4265     72.999   106.045
40.0000     73.476   102.715
40.5818     73.999    99.407
41.1721     74.356    96.114
41.7710     74.805    92.804
42.3785     75.399    89.365
42.9949     75.899    85.722
43.6203     76.288    81.926
44.2548     76.699    78.098
44.8985     77.099    74.256
45.5515     77.538    70.322
46.2141     77.979    66.296
46.8863     78.299    62.295
47.5683     78.510    58.414
48.2602     78.899    54.593
48.9621     79.099    50.719
49.6743     79.399    46.826
50.3968     79.537    42.997
51.1299     79.761    39.146
51.8736     79.899    35.224
52.6281     80.070    31.451
53.3936     80.219    27.853
54.1702     80.407    24.063
54.9581     80.599    20.225
55.7575     80.524    16.898
56.5685     80.799    13.800
57.3914     80.827    10.507
58.2261     80.899     7.337
59.0730     80.999     4.356
59.9323     80.999     1.277
60.8040     81.002    -1.593
61.6884     81.144    -4.198
62.5857     81.189    -6.932
63.4960     81.260    -9.622
64.4196     81.199   -12.147
65.3566     81.299   -14.768
66.3073     81.299   -17.364
67.2717     81.399   -19.773
68.2502     81.399   -22.273
69.2429     81.399   -24.762
70.2501     81.382   -27.007
71.2719     81.561   -29.244
72.3086     81.654   -31.351
73.3603     81.699   -33.340
74.4274     81.875   -35.481
75.5099     81.880   -37.616
76.6083     81.818   -39.602
77.7226     81.899   -41.582
78.8531     81.967   -43.554
80.0000     81.999   -45.585
81.1636     82.036   -47.532
82.3442     81.999   -49.406
83.5419     82.187   -51.361
84.7570     82.099   -53.164
85.9899     82.299   -54.813
87.2406     82.377   -56.628
88.5096     82.299   -58.489
89.7970     82.399   -60.124
91.1031     82.499   -62.056
92.4282     82.599   -63.957
93.7726     82.599   -65.912
95.1366     82.599   -67.561
96.5204     82.699   -69.450
97.9243     82.699   -71.418
99.3486     82.699   -73.448
100.794     82.799   -75.306
102.260     82.799   -76.976
103.747     82.969   -78.639
105.256     82.899   -80.571
106.787     82.999   -82.320
108.340     82.999   -84.328
109.916     82.999   -86.010
111.515     83.099   -87.901
113.137     83.099   -89.635
114.783     83.099   -91.471
116.452     83.199   -93.384
118.146     83.237   -95.291
119.865     83.168   -97.693
121.608     83.099   -98.805
123.377     83.109  -100.733
125.171     83.099  -102.340
126.992     83.199  -103.937
128.839     83.181  -105.593
130.713     83.099  -107.297
132.615     83.099  -109.063
134.543     83.016  -110.760
136.500     83.039  -112.430
138.486     83.059  -113.935
140.500     82.949  -115.588
142.544     82.882  -117.088
144.617     82.879  -118.399
146.721     82.782  -119.595
148.855     82.766  -120.863
151.020     82.699  -121.981
153.217     82.616  -123.031
155.445     82.549  -124.062
157.706     82.566  -125.308
160.000     82.557  -126.540
162.327     82.399  -127.600
164.688     82.466  -128.223
167.084     82.441  -128.851
169.514     82.513  -129.742
171.980     82.542  -130.809
174.481     82.549  -131.725
177.019     82.542  -132.679
179.594     82.541  -133.644
182.206     82.562  -134.667
184.856     82.599  -135.878
187.545     82.699  -137.087
190.273     82.699  -138.268
193.041     82.813  -139.495
195.849     82.837  -140.799
198.697     82.799  -142.214
201.587     82.799  -143.655
204.520     82.799  -145.045
207.494     82.836  -146.365
210.512     82.799  -148.028
213.574     82.749  -149.675
216.681     82.713  -151.024
219.833     82.569  -152.295
223.030     82.603  -153.380
226.274     82.537  -154.557
229.565     82.395  -155.771
232.905     82.296  -156.747
236.292     82.205  -157.835
239.729     82.169  -158.715
243.216     82.066  -159.452
246.754     81.850  -160.007
250.343     81.940  -160.598
253.984     81.824  -161.392
257.678     81.782  -162.399
261.426     81.601  -162.990
265.229     81.626  -163.398
269.087     81.545  -164.016
273.001     81.469  -164.093
276.972     81.490  -164.258
281.000     81.527  -164.718
285.088     81.471  -165.230
289.234     81.430  -165.836
293.441     81.417  -166.465
297.709     81.399  -167.019
302.040     81.398  -167.651
306.433     81.306  -168.403
310.890     81.243  -169.252
315.412     81.140  -169.944
320.000     81.079  -170.509
324.655     80.956  -170.938
329.377     80.842  -171.251
334.168     80.548  -171.408
339.028     80.390  -171.308
343.959     80.255  -171.015
348.962     80.200  -170.590
354.038     80.143  -170.061
359.188     80.098  -169.486
364.412     79.997  -168.948
369.713     79.998  -168.550
375.090     79.998  -168.341
380.546     80.080  -168.344
386.081     80.051  -168.568
391.697     80.098  -168.982
397.394     80.034  -169.538
403.175     79.998  -170.131
409.039     79.810  -170.717
414.989     79.742  -171.215
421.025     79.627  -171.527
427.149     79.348  -171.599
433.362     79.163  -171.393
439.665     78.881  -170.866
446.060     78.769  -170.049
452.548     78.559  -168.995
459.131     78.465  -167.753
465.809     78.298  -166.408
472.584     78.298  -165.090
479.458     78.272  -163.880
486.432     78.377  -162.799
493.507     78.348  -161.883
500.686     78.328  -161.140
507.968     78.408  -160.566
515.357     78.408  -160.116
522.853     78.431  -159.731
530.458     78.498  -159.368
538.174     78.398  -159.002
546.002     78.326  -158.620
553.943     78.298  -158.225
562.001     78.284  -157.850
570.175     78.363  -157.533
578.469     78.354  -157.301
586.883     78.337  -157.149
595.419     78.307  -157.026
604.080     78.298  -156.860
612.866     78.365  -156.589
621.780     78.354  -156.201
630.824     78.398  -155.780
640.000     78.486  -155.507
649.309     78.610  -155.580
658.753     78.756  -156.158
668.335     78.979  -157.318
678.056     79.044  -158.922
687.919     78.998  -160.775
697.925     78.998  -162.584
708.077     78.816  -164.037
718.376     78.655  -164.994
728.825     78.546  -165.449
739.426     78.398  -165.608
750.181     78.465  -165.796
761.093     78.398  -166.289
772.163     78.495  -167.163
783.394     78.398  -168.308
794.789     78.364  -169.490
806.349     78.237  -170.391
818.078     77.974  -170.825
829.977     77.848  -170.761
842.050     77.798  -170.363
854.298     77.871  -170.007
866.724     78.060  -170.181
879.330     78.195  -171.321
892.120     78.395  -173.451
905.097     78.451  -176.191
918.262     78.309  -179.601
931.618     77.917   176.713
945.169     77.244   173.653
958.917     76.424   172.329
972.864     75.427   173.658
987.015     74.644   177.524
1001.37     74.320  -177.816
1015.94     74.380  -174.743
1030.71     74.498  -174.051
1045.71     74.543  -174.785
1060.92     74.276  -175.431
1076.35     73.984  -175.074
1092.00     73.933  -174.218
1107.89     73.998  -174.274
1124.00     74.064  -176.017
1140.35     74.018  -178.857
1156.94     73.665   178.354
1173.77     73.291   176.408
1190.84     72.906   175.318
1208.16     72.468   174.903
1225.73     72.214   174.978
1243.56     72.102   174.472
1261.65     72.284   171.670
1280.00     72.134   166.610
1298.62     71.396   162.118
1317.51     70.579   161.489
1336.67     70.326   163.451
1356.11     70.545   162.369
1375.84     70.574   157.311
1395.85     69.951   153.352
1416.15     69.168   154.868
1436.75     69.280   159.508
1457.65     70.038   161.587
1478.85     70.748   159.788
1500.36     71.322   155.172
1522.19     71.481   149.369
1544.33     71.252   144.880
1566.79     71.198   142.129
1589.58     71.357   138.187
1612.70     71.085   132.570
1636.16     70.376   129.443
1659.95     69.959   130.878
1684.10     70.111   132.306
1708.60     70.464   130.890
1733.45     70.583   128.855
1758.66     70.859   126.332
1784.24     70.899   122.413
1810.19     70.837   119.208
1836.52     70.798   116.406
1863.24     70.779   111.116
1890.34     70.007   107.636
1917.83     69.625   110.856
1945.73     70.297   112.640
1974.03     70.940   108.737
2002.74     71.179   103.717
2031.87     71.377    98.651
2061.43     71.283    93.725
2091.41     71.059    88.139
2121.83     70.301    83.677
2152.69     69.640    84.513
2184.01     69.816    85.843
2215.77     70.260    84.053
2248.00     70.551    80.360
2280.70     70.542    77.862
2313.87     71.015    76.233
2347.53     71.462    69.838
2381.68     71.120    63.351
2416.32     70.763    61.283
2451.46     70.985    59.244
2487.12     71.146    54.815
2523.30     71.196    50.136
2560.00     71.061    45.801
2597.24     70.887    42.240
2635.01     70.755    39.388
2673.34     71.070    37.823
2712.23     71.545    31.984
2751.68     71.498    26.218
2791.70     71.398    21.838
2832.31     71.464    17.443
2873.50     71.386    12.117
2915.30     71.678     8.829
2957.70     71.771    -1.759
3000.72     70.670    -8.153
3044.37     69.777    -9.557
3088.65     69.409    -6.917
3133.58     70.110    -6.374
3179.16     70.769   -12.764
3225.40     70.261   -20.904
3272.31     69.581   -21.810
3319.91     69.928   -20.038
3368.20     71.089   -24.307
3417.19     71.478   -34.411
3466.89     71.280   -45.115
3517.32     70.162   -48.457
3568.48     70.400   -46.577
3620.39     71.248   -53.643
3673.05     71.081   -62.826
3726.47     70.529   -68.147
3780.67     70.182   -69.743
3835.67     70.706   -71.484
3891.46     71.051   -79.486
3948.06     70.603   -86.878
4005.49     70.178   -90.515
4063.75     70.106   -90.886
4122.86     70.595   -95.506
4182.82     70.677  -102.184
4243.66     70.754  -107.341
4305.39     70.797  -112.249
4368.01     71.175  -117.966
4431.55     71.228  -127.182
4496.01     70.617  -135.342
4561.40     69.857  -140.798
4627.75     69.570  -143.405
4695.06     69.403  -149.983
4763.35     68.671  -152.873
4832.64     68.200  -153.865
4902.93     68.049  -157.226
4974.24     67.683  -160.324
5046.60     67.326  -161.701
5120.00     67.617  -160.774
5194.47     67.994  -162.774
5270.03     68.351  -168.271
5346.68     68.497  -171.756
5424.45     68.890  -176.982
5503.35     69.136   174.959
5583.40     68.876   169.775
5664.61     68.959   162.918
5747.01     68.719   155.871
5830.60     68.477   150.575
5915.41     68.274   144.641
6001.45     67.981   138.761
6088.74     67.706   132.848
6177.30     67.331   127.550
6267.15     67.129   122.533
6358.31     66.817   117.632
6450.80     66.483   111.776
6544.62     65.920   106.748
6639.82     65.791   102.189
6736.40     65.285    97.171
6834.38     65.129    95.211
6933.79     64.891    89.106
7034.64     64.408    84.785
7136.96     64.195    81.910
7240.77     63.795    78.208
7346.09     64.107    77.415
7452.94     64.147    71.024
7561.35     64.324    66.048
7671.33     64.525    57.994
7782.91     64.002    50.962
7896.12     63.717    45.330
8010.97     63.231    39.737
8127.49     63.187    36.084
8245.71     63.245    29.197
8365.65     63.160    22.781
8487.33     62.954    12.841
8610.78     62.175     6.942
8736.03     61.623     1.447
8863.09     61.175    -1.015
8992.01     61.119    -8.164
9122.80     60.788   -12.809
9255.50     60.393   -20.119
9390.12     59.852   -23.999
9526.70     59.286   -30.204
9665.27     58.686   -33.760
9805.86     58.280   -35.930
9948.49     58.198   -38.420
10093.2     57.991   -43.239
10240.0     57.788   -46.549
10388.9     57.499   -51.116
10540.1     57.398   -54.108
10693.4     57.517   -57.260
10848.9     57.646   -65.763
11006.7     57.242   -73.081
11166.8     56.247   -76.999
11329.2     55.702   -76.622
11494.0     55.853   -76.347
11661.2     56.468   -78.643
11830.8     57.226   -82.637
12002.9     57.891   -90.243
12177.5     58.261  -100.909
12354.6     57.980  -111.576
12534.3     57.524  -117.483
12716.6     57.598  -120.939
12901.6     58.281  -125.275
13089.2     59.300  -133.599
13279.6     60.326  -145.172
13472.8     61.489  -158.941
13668.8     62.384  -177.420
13867.6     62.567   162.434
14069.3     62.231   143.710
14273.9     61.795   125.364
14481.5     60.969   106.643
14692.2     59.860    91.125
14905.9     59.083    77.236
15122.7     58.321    58.614
15342.7     57.099    37.664
15565.8     55.297    15.695
15792.2     53.218    -4.169
16021.9     51.791   -25.910
16255.0     50.817   -51.845
16491.4     49.462   -77.574
16731.3     48.396  -100.950
16974.7     47.836  -120.376
17221.6     46.324  -139.628
17472.1     43.650  -141.698
17726.2     44.113  -133.251
17984.0     45.563  -148.316
18245.6     43.151  -165.320
18511.0     38.401  -155.667
18780.2     40.805   -98.011
19053.4     46.768  -103.556
19330.5     48.233  -143.800
19611.7     46.521  -164.315
19897.0     47.542  -176.828
20186.4     47.212   170.840
20480.0     46.882   158.507
20777.9     46.552   146.175
21080.1     46.222   133.843
21386.7     45.891   121.509
21697.8     45.561   109.179
22013.4     45.231    96.848
22333.6     44.901    84.516
22658.4     44.571    72.180
22988.0     44.241    59.850
23322.4     43.911    47.520
23661.6     43.581    35.187
24005.8     43.251    22.857
24355.0     42.920    10.527
24709.2     42.590    -1.807
25068.6     42.260   -14.141
25433.2     41.930   -26.474
25803.2     41.600   -38.800
26178.5     41.270   -51.134
26559.3     40.940   -63.464
26945.6     40.610   -75.797
27337.5     40.280   -88.131
27735.2     39.949  -100.459
28138.6     39.619  -112.791
28547.9     39.289  -125.123
28963.1     38.959  -137.456
29384.4     38.629  -149.786
29811.8     38.299  -162.118
30245.4     37.969  -174.452
30685.3     37.639   173.214
31131.7     37.309   160.887
31584.5     36.978   148.555
32043.9     36.648   136.221
32510.0     36.318   123.891
32982.8     35.988   111.555
33462.6     35.658    99.226
33949.3     35.328    86.894
34443.1     34.998    74.562
34944.1     34.668    62.230
35452.4     34.338    49.900
35968.0     34.007    37.565
36491.2     33.677    25.235
37022.0     33.347    12.903
37560.5     33.017     0.571
38106.8     32.687   -11.761
38661.1     32.357   -24.092
39223.4     32.027   -36.426
39793.9     31.697   -48.758
