Freq[Hz]     dBSPL  Phase[Deg]
5.00000     -5.302   127.621
5.07273     -4.770   126.580
5.14651     -4.339   125.521
5.22137     -3.807   124.448
5.29732     -3.375   123.359
5.37437     -2.844   122.255
5.45254     -2.313   121.134
5.53185     -1.881   119.997
5.61231     -1.350   118.843
5.69394     -0.918   117.673
5.77676     -0.386   116.485
5.86079      0.146   115.281
5.94604      0.576   114.058
6.03252      1.108   112.818
6.12027      1.540   111.559
6.20929      2.071   110.282
6.29961      2.603   108.987
6.39124      3.035   107.673
6.48420      3.565   106.339
6.57851      3.997   104.986
6.67420      4.529   103.613
6.77128      5.061   102.222
6.86977      5.492   100.809
6.96969      6.024    99.375
7.07107      6.456    97.920
7.17392      6.986    96.445
7.27827      7.518    94.946
7.38413      7.950    93.428
7.49154      8.481    91.886
7.60050      8.913    90.322
7.71105      9.445    88.736
7.82321      9.976    87.126
7.93701     10.407    85.493
8.05245     10.939    83.836
8.16958     11.371    82.154
8.28841     11.902    80.450
8.40896     12.434    78.719
8.53128     12.866    76.964
8.65537     13.397    75.183
8.78126     13.828    73.374
8.90899     14.360    71.541
9.03857     14.892    69.681
9.17004     15.323    67.794
9.30342     15.855    65.880
9.43874     16.286    63.936
9.57603     16.817    61.966
9.71532     17.249    59.967
9.85663     17.781    57.937
10.0000     18.313    55.881
10.1455     18.744    53.794
10.2930     19.275    51.673
10.4427     19.707    49.523
10.5946     20.238    47.344
10.7487     20.770    45.133
10.9051     21.202    42.889
11.0637     21.733    40.613
11.2246     22.165    38.303
11.3879     22.696    35.960
11.5535     23.228    33.583
11.7216     23.659    31.172
11.8921     24.191    28.726
12.0650     24.623    26.242
12.2405     25.154    23.726
12.4186     25.685    21.173
12.5992     26.117    18.581
12.7825     26.648    15.954
12.9684     27.080    13.288
13.1570     27.612    10.582
13.3484     28.144     7.839
13.5426     28.574     5.057
13.7395     29.106     2.232
13.9394     29.538    -0.631
14.1421     30.069    -3.539
14.3478     30.501    -6.486
14.5565     31.033    -9.476
14.7683     31.564   -12.507
14.9831     31.995   -15.584
15.2010     32.527   -18.707
15.4221     32.959   -21.875
15.6464     33.490   -25.087
15.8740     34.022   -28.346
16.1049     34.454   -31.651
16.3392     34.984   -35.004
16.5768     35.416   -38.408
16.8179     35.948   -41.861
17.0626     36.479   -45.358
17.3107     36.911   -48.914
17.5625     37.443   -52.518
17.8180     37.875   -56.172
18.0771     38.405   -59.882
18.3401     38.837   -63.643
18.6068     39.369   -67.461
18.8775     39.900   -71.332
19.1521     40.332   -75.261
19.4306     40.864   -79.250
19.7133     41.295   -83.291
20.0000     41.826   -87.396
20.2909     42.358   -91.559
20.5860     43.099   -98.457
20.8855     43.796  -104.961
21.1893     44.413  -110.818
21.4975     44.929  -115.912
21.8102     45.299  -120.158
22.1274     45.757  -123.593
22.4492     46.169  -126.445
22.7758     46.680  -129.158
23.1071     47.189  -132.284
23.4432     47.798  -136.222
23.7841     48.204  -141.027
24.1301     48.699  -146.238
24.4811     49.114  -151.298
24.8372     49.417  -155.710
25.1984     49.899  -159.273
25.5649     50.518  -162.271
25.9368     51.217  -165.362
26.3141     52.299  -169.134
26.6968     53.409  -173.749
27.0851     54.499  -178.933
27.4791     55.195   175.829
27.8788     55.999   171.107
28.2843     56.575   167.286
28.6957     57.199   164.474
29.1131     57.899   162.421
29.5365     58.734   160.592
29.9661     59.416   158.457
30.4020     59.999   155.794
30.8442     60.699   152.843
31.2929     61.254   150.119
31.7480     61.699   147.832
32.2098     62.399   145.724
32.6783     62.899   143.098
33.1536     63.699   139.687
33.6359     64.199   135.845
34.1251     64.781   132.268
34.6215     65.199   129.369
35.1250     65.807   126.805
35.6359     66.499   123.879
36.1543     67.226   120.371
36.6802     67.899   116.603
37.2137     68.499   112.994
37.7550     69.099   109.590
38.3041     69.799   106.160
38.8613     70.487   102.559
39.4265     70.999    98.844
40.0000     71.499    95.134
40.5818     72.099    91.456
41.1721     72.499    87.802
41.7710     73.005    84.141
42.3785     73.527    80.361
42.9949     74.099    76.387
43.6203     74.499    72.270
44.2548     74.999    68.132
44.8985     75.399    63.992
45.5515     75.838    59.771
46.2141     76.299    55.468
46.8863     76.699    51.199
47.5683     76.999    47.065
48.2602     77.299    42.999
48.9621     77.599    38.891
49.6743     77.963    34.776
50.3968     78.099    30.734
51.1299     78.361    26.681
51.8736     78.499    22.566
52.6281     78.770    18.612
53.3936     78.899    14.841
54.1702     79.199    10.887
54.9581     79.399     6.896
55.7575     79.324     3.424
56.5685     79.599     0.189
57.3914     79.699    -3.231
58.2261     79.799    -6.521
59.0730     79.899    -9.614
59.9323     79.934   -12.797
60.8040     80.002   -15.764
61.6884     80.144   -18.458
62.5857     80.199   -21.274
63.4960     80.299   -24.039
64.4196     80.299   -26.633
65.3566     80.399   -29.316
66.3073     80.405   -31.969
67.2717     80.569   -34.428
68.2502     80.536   -36.973
69.2429     80.599   -39.501
70.2501     80.582   -41.778
71.2719     80.799   -44.043
72.3086     80.899   -46.172
73.3603     80.999   -48.178
74.4274     81.175   -50.331
75.5099     81.180   -52.472
76.6083     81.118   -54.459
77.7226     81.222   -56.436
78.8531     81.267   -58.399
80.0000     81.399   -60.416
81.1636     81.336   -62.344
82.3442     81.399   -64.192
83.5419     81.587   -66.117
84.7570     81.499   -67.884
85.9899     81.599   -69.491
87.2406     81.777   -71.258
88.5096     81.699   -73.065
89.7970     81.799   -74.638
91.1031     81.899   -76.502
92.4282     81.999   -78.328
93.7726     81.999   -80.200
95.1366     81.999   -81.759
96.5204     82.099   -83.548
97.9243     82.059   -85.408
99.3486     82.099   -87.320
100.794     82.199   -89.050
102.260     82.199   -90.582
103.747     82.299   -92.095
105.256     82.299   -93.865
106.787     82.299   -95.441
108.340     82.399   -97.264
109.916     82.299   -98.748
111.515     82.399  -100.427
113.137     82.499  -101.936
114.783     82.499  -103.535
116.452     82.599  -105.197
118.146     82.599  -106.841
119.865     82.499  -108.970
121.608     82.499  -109.800
123.377     82.509  -111.439
125.171     82.579  -112.752
126.992     82.699  -114.053
128.839     82.681  -115.415
130.713     82.599  -116.833
132.615     82.599  -118.326
134.543     82.599  -119.764
136.500     82.699  -121.195
138.486     82.759  -122.514
140.500     82.699  -124.000
142.544     82.599  -125.364
144.617     82.679  -126.594
146.721     82.632  -127.756
148.855     82.766  -129.035
151.020     82.699  -130.211
153.217     82.666  -131.363
155.445     82.649  -132.535
157.706     82.733  -133.948
160.000     82.699  -135.389
162.327     82.599  -136.671
164.688     82.683  -137.506
167.084     82.684  -138.359
169.514     82.770  -139.482
171.980     82.770  -140.760
174.481     82.766  -141.847
177.019     82.785  -142.943
179.594     82.756  -144.026
182.206     82.762  -145.133
184.856     82.770  -146.383
187.545     82.856  -147.588
190.273     82.849  -148.721
193.041     82.970  -149.860
195.849     82.937  -151.038
198.697     82.899  -152.283
201.587     82.899  -153.523
204.520     82.899  -154.688
207.494     82.999  -155.769
210.512     82.921  -157.170
213.574     82.899  -158.561
216.681     82.913  -159.684
219.833     82.802  -160.742
223.030     82.915  -161.645
226.274     82.904  -162.695
229.565     82.828  -163.851
232.905     82.819  -164.846
236.292     82.805  -166.035
239.729     82.819  -167.115
243.216     82.799  -168.144
246.754     82.650  -169.074
250.343     82.810  -170.135
253.984     82.724  -171.452
257.678     82.702  -173.007
261.426     82.538  -174.165
265.229     82.526  -175.099
269.087     82.445  -176.166
273.001     82.279  -176.590
276.972     82.244  -176.982
281.000     82.227  -177.546
285.088     82.163  -178.025
289.234     82.057  -178.475
293.441     82.017  -178.848
297.709     82.072  -179.088
302.040     81.998  -179.380
306.433     81.998  -179.792
310.890     82.005   179.657
315.412     81.998   179.172
320.000     82.056   178.690
324.655     82.098   178.203
329.377     82.057   177.677
334.168     81.898   177.118
339.028     81.898   176.650
343.959     81.898   176.236
348.962     81.900   175.857
354.038     81.907   175.530
359.188     81.898   175.217
364.412     81.797   174.887
369.713     81.798   174.506
375.090     81.871   174.048
380.546     81.933   173.478
386.081     81.898   172.801
391.697     81.898   172.020
397.394     81.897   171.164
403.175     81.898   170.333
409.039     81.798   169.524
414.989     81.798   168.793
421.025     81.745   168.208
427.149     81.592   167.782
433.362     81.498   167.510
439.665     81.398   167.349
446.060     81.398   167.262
452.548     81.298   167.185
459.131     81.298   167.066
465.809     81.198   166.877
472.584     81.198   166.633
479.458     81.156   166.379
486.432     81.198   166.167
493.507     81.098   166.057
500.686     80.998   166.075
507.968     80.998   166.188
515.357     80.938   166.297
522.853     80.988   166.269
530.458     81.107   165.963
538.174     81.103   165.301
546.002     81.098   164.292
553.943     81.098   162.995
562.001     80.998   161.561
570.175     80.959   160.190
578.469     80.763   159.085
586.883     80.559   158.405
595.419     80.389   158.151
604.080     80.202   158.187
612.866     80.298   158.269
621.780     80.294   158.111
630.824     80.346   157.499
640.000     80.398   156.377
649.309     80.406   154.833
658.753     80.398   152.987
668.335     80.372   150.981
678.056     80.175   149.062
687.919     79.944   147.347
697.925     79.750   145.958
708.077     79.466   145.019
718.376     79.219   144.554
728.825     79.053   144.537
739.426     78.898   144.786
750.181     78.898   144.981
761.093     78.888   144.775
772.163     78.935   143.989
783.394     78.898   142.707
794.789     78.792   141.254
806.349     78.585   140.161
818.078     78.207   139.816
829.977     77.970   140.284
842.050     77.827   141.221
854.298     77.798   142.067
866.724     77.798   142.517
879.330     77.649   142.822
892.120     77.549   143.780
905.097     77.428   146.202
918.262     77.540   149.472
931.618     77.914   152.396
945.169     78.490   153.863
958.917     79.185   153.361
972.864     79.677   151.142
987.015     79.962   147.900
1001.37     80.025   144.415
1015.94     79.955   141.437
1030.71     79.825   139.284
1045.71     79.822   137.612
1060.92     79.798   135.739
1076.35     79.836   133.299
1092.00     79.893   130.527
1107.89     79.798   127.968
1124.00     79.707   125.779
1140.35     79.909   123.331
1156.94     80.000   119.858
1173.77     80.148   115.490
1190.84     80.157   110.970
1208.16     80.032   106.686
1225.73     79.955   102.269
1243.56     79.763    97.477
1261.65     79.620    92.872
1280.00     79.526    88.849
1298.62     79.449    84.566
1317.51     79.467    79.020
1336.67     79.288    73.119
1356.11     78.922    68.805
1375.84     78.958    65.462
1395.85     79.314    60.080
1416.15     79.396    52.362
1436.75     79.291    45.428
1457.65     79.122    40.315
1478.85     78.998    35.338
1500.36     79.001    29.486
1522.19     78.895    23.776
1544.33     78.775    18.316
1566.79     78.758    11.844
1589.58     78.538     5.060
1612.70     78.130    -0.120
1636.16     77.998    -4.334
1659.95     78.187    -9.584
1684.10     78.267   -16.288
1708.60     78.328   -24.095
1733.45     78.130   -32.327
1758.66     77.898   -40.388
1784.24     77.411   -47.915
1810.19     76.894   -53.222
1836.52     76.628   -56.355
1863.24     76.950   -61.905
1890.34     76.819   -68.830
1917.83     76.927   -73.042
1945.73     77.454   -79.351
1974.03     77.625   -88.495
2002.74     77.661   -95.495
2031.87     78.052  -103.594
2061.43     77.968  -112.364
2091.41     77.955  -118.305
2121.83     78.169  -125.361
2152.69     78.273  -132.010
2184.01     78.746  -138.447
2215.77     79.119  -147.103
2248.00     79.366  -155.212
2280.70     79.484  -164.282
2313.87     79.322  -171.247
2347.53     79.552  -176.882
2381.68     79.698   175.573
2416.32     79.846   169.457
2451.46     80.155   161.912
2487.12     80.098   154.036
2523.30     79.995   146.999
2560.00     79.898   141.373
2597.24     79.747   135.526
2635.01     79.772   131.570
2673.34     80.158   126.086
2712.23     80.396   119.231
2751.68     80.411   110.726
2791.70     79.856   105.225
2832.31     79.722   100.560
2873.50     79.454    97.505
2915.30     79.589    93.276
2957.70     79.340    89.719
3000.72     79.413    84.697
3044.37     78.797    81.374
3088.65     78.636    80.763
3133.58     78.847    79.984
3179.16     79.202    77.273
3225.40     79.362    73.577
3272.31     79.639    70.366
3319.91     79.905    66.929
3368.20     80.430    63.359
3417.19     80.915    57.862
3466.89     81.296    50.553
3517.32     81.494    44.530
3568.48     81.531    37.109
3620.39     81.601    30.269
3673.05     81.396    22.833
3726.47     81.058    16.204
3780.67     80.581    10.499
3835.67     79.986     5.454
3891.46     79.419     1.411
3948.06     78.693    -0.634
4005.49     78.118    -1.560
4063.75     77.736    -0.008
4122.86     77.752     2.697
4182.82     78.059     3.171
4243.66     78.676     2.265
4305.39     79.235    -0.318
4368.01     79.812    -3.728
4431.55     80.211    -9.101
4496.01     80.561   -15.782
4561.40     80.498   -21.302
4627.75     80.386   -27.304
4695.06     80.088   -33.012
4763.35     79.492   -36.732
4832.64     79.114   -38.159
4902.93     78.816   -38.536
4974.24     78.728   -38.333
5046.60     78.973   -38.315
5120.00     79.542   -40.068
5194.47     79.854   -43.238
5270.03     80.358   -46.784
5346.68     80.765   -53.007
5424.45     80.753   -59.272
5503.35     80.756   -64.800
5583.40     80.552   -71.479
5664.61     80.030   -76.071
5747.01     79.656   -79.261
5830.60     79.309   -81.895
5915.41     79.100   -83.468
6001.45     79.159   -85.272
6088.74     79.373   -88.297
6177.30     79.569   -92.414
6267.15     79.766   -98.158
6358.31     79.651  -104.653
6450.80     79.318  -110.156
6544.62     78.876  -115.656
6639.82     78.448  -118.829
6736.40     78.109  -122.813
6834.38     77.740  -124.680
6933.79     77.548  -127.547
7034.64     77.449  -130.552
7136.96     77.341  -134.986
7240.77     77.006  -138.754
7346.09     76.633  -140.723
7452.94     76.539  -142.385
7561.35     76.636  -145.654
7671.33     76.619  -150.143
7782.91     76.408  -154.360
7896.12     75.956  -158.338
8010.97     75.637  -160.655
8127.49     75.598  -163.346
8245.71     75.774  -166.157
8365.65     75.728  -171.437
8487.33     75.551  -176.971
8610.78     75.148   177.687
8736.03     74.620   173.871
8863.09     74.231   170.787
8992.01     74.009   168.201
9122.80     73.820   165.096
9255.50     73.571   161.690
9390.12     73.243   158.291
9526.70     73.011   155.280
9665.27     72.704   152.909
9805.86     72.698   149.464
9948.49     72.598   144.547
10093.2     72.047   138.995
10240.0     71.381   135.165
10388.9     70.851   133.705
10540.1     70.753   131.099
10693.4     70.412   125.762
10848.9     69.794   120.365
11006.7     68.933   115.136
11166.8     67.665   111.397
11329.2     66.291   110.540
11494.0     65.046   113.248
11661.2     64.358   117.506
11830.8     63.807   117.828
12002.9     62.383   118.379
12177.5     60.351   134.570
12354.6     61.598   160.792
12534.3     64.948   168.416
12716.6     66.931   163.177
12901.6     68.163   158.606
13089.2     69.490   155.850
13279.6     71.211   150.343
13472.8     72.745   140.320
13668.8     73.740   128.393
13867.6     74.530   117.579
14069.3     75.381   105.823
14273.9     76.200    90.903
14481.5     76.568    74.128
14692.2     76.597    57.071
14905.9     76.410    39.169
15122.7     75.778    19.898
15342.7     74.747    -0.006
15565.8     73.247   -19.287
15792.2     71.396   -37.725
16021.9     69.180   -56.906
16255.0     66.459   -78.275
16491.4     62.990  -104.528
16731.3     59.194  -142.638
16974.7     56.999   162.369
17221.6     58.114   111.269
17472.1     59.983    79.303
17726.2     61.490    59.461
17984.0     62.747    44.043
18245.6     63.606    29.103
18511.0     64.301    13.992
18780.2     64.994    -2.277
19053.4     65.773   -22.851
19330.5     66.361   -50.618
19611.7     66.179   -84.058
19897.0     65.790  -110.797
20186.4     65.687  -123.607
20480.0     65.584  -136.417
20777.9     65.481  -149.225
21080.1     65.378  -162.033
21386.7     65.275  -174.842
21697.8     65.172   172.352
22013.4     65.069   159.544
22333.6     64.966   146.736
22658.4     64.863   133.924
22988.0     64.760   121.118
23322.4     64.657   108.313
23661.6     64.554    95.503
24005.8     64.451    82.697
24355.0     64.348    69.891
24709.2     64.245    57.081
25068.6     64.142    44.272
25433.2     64.039    31.462
25803.2     63.935    18.660
26178.5     63.832     5.850
26559.3     63.729    -6.956
26945.6     63.626   -19.765
27337.5     63.523   -32.575
27735.2     63.420   -45.379
28138.6     63.317   -58.187
28547.9     63.214   -70.995
28963.1     63.111   -83.804
29384.4     63.008   -96.610
29811.8     62.905  -109.418
30245.4     62.802  -122.228
30685.3     62.699  -135.038
31131.7     62.596  -147.842
31584.5     62.493  -160.649
32043.9     62.390  -173.459
32510.0     62.287   173.735
32982.8     62.184   160.923
33462.6     62.081   148.117
33949.3     61.978   135.310
34443.1     61.875   122.502
34944.1     61.772   109.694
35452.4     61.669    96.888
35968.0     61.566    84.076
36491.2     61.463    71.271
37022.0     61.360    58.463
37560.5     61.257    45.655
38106.8     61.154    32.847
38661.1     61.051    20.039
39223.4     60.948     7.229
39793.9     60.845    -5.578
