Freq[Hz]     dBSPL  Phase[Deg]
5.00000     -6.456   152.156
5.07273     -5.943   150.997
5.14651     -5.530   149.820
5.22137     -5.018   148.627
5.29732     -4.605   147.416
5.37437     -4.092   146.188
5.45254     -3.581   144.941
5.53185     -3.168   143.677
5.61231     -2.655   142.393
5.69394     -2.243   141.092
5.77676     -1.730   139.771
5.86079     -1.217   138.432
5.94604     -0.806   137.073
6.03252     -0.293   135.693
6.12027      0.120   134.293
6.20929      0.632   132.873
6.29961      1.145   131.433
6.39124      1.558   129.971
6.48420      2.069   128.488
6.57851      2.482   126.984
6.67420      2.995   125.457
6.77128      3.507   123.910
6.86977      3.920   122.338
6.96969      4.433   120.744
7.07107      4.845   119.126
7.17392      5.357   117.486
7.27827      5.870   115.819
7.38413      6.282   114.131
7.49154      6.795   112.416
7.60050      7.208   110.678
7.71105      7.720   108.913
7.82321      8.232   107.124
7.93701      8.645   105.307
8.05245      9.157   103.465
8.16958      9.570   101.595
8.28841     10.083    99.699
8.40896     10.595    97.775
8.53128     11.008    95.823
8.65537     11.520    93.843
8.78126     11.932    91.832
8.90899     12.445    89.794
9.03857     12.958    87.725
9.17004     13.370    85.627
9.30342     13.883    83.498
9.43874     14.295    81.337
9.57603     14.807    79.146
9.71532     15.220    76.923
9.85663     15.733    74.667
10.0000     16.245    72.380
10.1455     16.658    70.059
10.2930     17.170    67.701
10.4427     17.582    65.310
10.5946     18.095    62.888
10.7487     18.608    60.427
10.9051     19.020    57.933
11.0637     19.533    55.402
11.2246     19.946    52.834
11.3879     20.457    50.228
11.5535     20.970    47.585
11.7216     21.383    44.904
11.8921     21.895    42.184
12.0650     22.308    39.422
12.2405     22.821    36.624
12.4186     23.332    33.784
12.5992     23.745    30.903
12.7825     24.258    27.981
12.9684     24.670    25.016
13.1570     25.183    22.007
13.3484     25.696    18.957
13.5426     26.107    15.863
13.7395     26.620    12.721
13.9394     27.033     9.537
14.1421     27.545     6.303
14.3478     27.958     3.025
14.5565     28.471    -0.301
14.7683     28.983    -3.672
14.9831     29.395    -7.094
15.2010     29.908   -10.567
15.4221     30.320   -14.090
15.6464     30.833   -17.663
15.8740     31.346   -21.287
16.1049     31.758   -24.964
16.3392     32.270   -28.694
16.5768     32.683   -32.479
16.8179     33.195   -36.319
17.0626     33.708   -40.210
17.3107     34.121   -44.165
17.5625     34.633   -48.173
17.8180     35.046   -52.238
18.0771     35.558   -56.365
18.3401     35.970   -60.548
18.6068     36.483   -64.795
18.8775     36.996   -69.101
19.1521     37.408   -73.470
19.4306     37.921   -77.907
19.7133     38.333   -82.403
20.0000     38.845   -86.969
20.2909     39.358   -91.599
20.5860     40.077   -98.816
20.8855     40.696  -105.677
21.1893     41.313  -111.918
21.4975     41.829  -117.414
21.8102     42.143  -122.083
22.1274     42.557  -125.958
22.4492     42.969  -129.270
22.7758     43.480  -132.461
23.1071     43.989  -136.083
23.4432     44.598  -140.535
23.7841     45.004  -145.872
24.1301     45.410  -151.630
24.4811     45.814  -157.251
24.8372     46.117  -162.235
25.1984     46.599  -166.381
25.5649     47.218  -169.971
25.9368     47.999  -173.659
26.3141     49.099  -178.031
26.6968     50.209   176.752
27.0851     51.299   170.968
27.4791     52.099   165.135
27.8788     52.999   159.825
28.2843     53.599   155.428
28.6957     54.299   152.051
29.1131     54.999   149.450
29.5365     55.899   147.092
29.9661     56.616   144.447
30.4020     57.300   141.299
30.8442     58.099   137.890
31.2929     58.699   134.735
31.7480     59.269   132.045
32.2098     59.999   129.563
32.6783     60.623   126.597
33.1536     61.499   122.878
33.6359     62.084   118.759
34.1251     62.718   114.939
34.6215     63.299   111.831
35.1250     63.999   109.089
35.6359     64.799   106.019
36.1543     65.671   102.398
36.6802     66.415    98.549
37.2137     67.099    94.888
37.7550     67.799    91.461
38.3041     68.558    88.038
38.8613     69.310    84.468
39.4265     69.999    80.811
40.0000     70.599    77.182
40.5818     71.280    73.609
41.1721     71.699    70.081
41.7710     72.305    66.565
42.3785     72.971    62.951
42.9949     73.599    59.160
43.6203     74.099    55.242
44.2548     74.599    51.318
44.8985     75.099    47.407
45.5515     75.676    43.426
46.2141     76.199    39.376
46.8863     76.602    35.372
47.5683     76.999    31.510
48.2602     77.399    27.728
48.9621     77.699    23.911
49.6743     78.163    20.094
50.3968     78.399    16.357
51.1299     78.661    12.616
51.8736     78.899     8.818
52.6281     79.170     5.186
53.3936     79.399     1.741
54.1702     79.699    -1.881
54.9581     79.999    -5.538
55.7575     80.024    -8.672
56.5685     80.246   -11.566
57.3914     80.399   -14.643
58.2261     80.599   -17.586
59.0730     80.699   -20.330
59.9323     80.799   -23.162
60.8040     80.902   -25.777
61.6884     81.044   -28.115
62.5857     81.189   -30.575
63.4960     81.299   -32.982
64.4196     81.299   -35.215
65.3566     81.446   -37.537
66.3073     81.499   -39.826
67.2717     81.669   -41.920
68.2502     81.699   -44.098
69.2429     81.707   -46.257
70.2501     81.782   -48.164
71.2719     81.999   -50.055
72.3086     82.154   -51.810
73.3603     82.231   -53.439
74.4274     82.475   -55.212
75.5099     82.480   -56.972
76.6083     82.499   -58.575
77.7226     82.599   -60.164
78.8531     82.667   -61.738
80.0000     82.799   -63.362
81.1636     82.799   -64.894
82.3442     82.799   -66.343
83.5419     82.987   -67.865
84.7570     82.999   -69.225
85.9899     83.099   -70.421
87.2406     83.277   -71.773
88.5096     83.199   -73.161
89.7970     83.399   -74.310
91.1031     83.399   -75.745
92.4282     83.499   -77.137
93.7726     83.599   -78.570
95.1366     83.599   -79.683
96.5204     83.699   -81.021
97.9243     83.699   -82.424
99.3486     83.799   -83.873
100.794     83.799   -85.132
102.260     83.799   -86.186
103.747     83.999   -87.213
105.256     83.899   -88.491
106.787     83.999   -89.565
108.340     83.999   -90.878
109.916     83.999   -91.843
111.515     84.099   -92.992
113.137     84.099   -93.963
114.783     84.156   -95.011
116.452     84.299   -96.112
118.146     84.299   -97.183
119.865     84.199   -98.728
121.608     84.199   -98.958
123.377     84.199   -99.984
125.171     84.179  -100.670
126.992     84.299  -101.329
128.839     84.281  -102.035
130.713     84.205  -102.781
132.615     84.299  -103.585
134.543     84.199  -104.304
136.500     84.299  -104.995
138.486     84.359  -105.637
140.500     84.282  -106.374
142.544     84.199  -106.920
144.617     84.279  -107.400
146.721     84.199  -107.814
148.855     84.299  -108.279
151.020     84.299  -108.648
153.217     84.216  -109.000
155.445     84.249  -109.380
157.706     84.299  -110.016
160.000     84.285  -110.627
162.327     84.182  -111.096
164.688     84.266  -111.196
167.084     84.270  -111.273
169.514     84.356  -111.581
171.980     84.370  -112.067
174.481     84.366  -112.442
177.019     84.385  -112.848
179.594     84.370  -113.215
182.206     84.374  -113.583
184.856     84.399  -114.125
187.545     84.484  -114.699
190.273     84.487  -115.187
193.041     84.599  -115.711
195.849     84.537  -116.306
198.697     84.536  -116.962
201.587     84.574  -117.646
204.520     84.499  -118.285
207.494     84.599  -118.868
210.512     84.599  -119.767
213.574     84.599  -120.678
216.681     84.613  -121.367
219.833     84.446  -121.977
223.030     84.548  -122.414
226.274     84.504  -123.002
229.565     84.428  -123.694
232.905     84.396  -124.221
236.292     84.372  -124.932
239.729     84.399  -125.498
243.216     84.399  -126.004
246.754     84.220  -126.406
250.343     84.390  -126.913
253.984     84.334  -127.687
257.678     84.342  -128.720
261.426     84.192  -129.368
265.229     84.296  -129.839
269.087     84.245  -130.503
273.001     84.149  -130.588
276.972     84.090  -130.706
281.000     84.127  -131.048
285.088     84.121  -131.349
289.234     84.121  -131.658
293.441     84.117  -131.904
297.709     84.099  -132.003
302.040     84.098  -132.115
306.433     84.098  -132.275
310.890     84.105  -132.474
315.412     84.098  -132.506
320.000     84.110  -132.431
324.655     84.098  -132.267
329.377     84.119  -132.063
334.168     83.948  -131.775
339.028     83.898  -131.364
343.959     83.898  -130.903
348.962     83.969  -130.435
354.038     84.007  -129.956
359.188     83.998  -129.476
364.412     83.897  -129.014
369.713     83.898  -128.599
375.090     83.898  -128.220
380.546     84.000  -127.843
386.081     83.898  -127.462
391.697     83.898  -127.021
397.394     83.822  -126.495
403.175     83.798  -125.909
409.039     83.698  -125.233
414.989     83.698  -124.490
421.025     83.698  -123.739
427.149     83.623  -123.020
433.362     83.698  -122.365
439.665     83.598  -121.754
446.060     83.663  -121.219
452.548     83.598  -120.733
459.131     83.598  -120.243
465.809     83.498  -119.711
472.584     83.509  -119.136
479.458     83.503  -118.530
486.432     83.598  -117.924
493.507     83.558  -117.390
500.686     83.538  -117.006
507.968     83.613  -116.827
515.357     83.598  -116.839
522.853     83.593  -116.982
530.458     83.588  -117.148
538.174     83.398  -117.202
546.002     83.198  -117.032
553.943     83.021  -116.565
562.001     82.843  -115.802
570.175     82.798  -114.818
578.469     82.698  -113.737
586.883     82.598  -112.686
595.419     82.498  -111.679
604.080     82.319  -110.619
612.866     82.298  -109.378
621.780     82.198  -107.861
630.824     82.166  -106.121
640.000     82.190  -104.426
649.309     82.282  -103.098
658.753     82.409  -102.367
668.335     82.624  -102.308
678.056     82.659  -102.753
687.919     82.598  -103.359
697.925     82.542  -103.748
708.077     82.398  -103.664
718.376     82.291  -103.126
728.825     82.219  -102.398
739.426     82.198  -101.842
750.181     82.275  -101.656
761.093     82.158  -101.715
772.163     82.061  -101.649
783.394     81.866  -101.091
794.789     81.754   -99.932
806.349     81.698   -98.531
818.078     81.640   -97.415
829.977     81.698   -96.926
842.050     81.683   -96.987
854.298     81.549   -97.169
866.724     81.310   -97.002
879.330     80.918   -96.170
892.120     80.578   -94.355
905.097     80.223   -91.162
918.262     79.945   -86.934
931.618     79.860   -82.079
945.169     79.995   -77.377
958.917     80.437   -73.886
972.864     80.785   -72.081
987.015     81.021   -71.500
1001.37     81.098   -71.219
1015.94     81.098   -70.652
1030.71     81.098   -69.934
1045.71     81.198   -69.500
1060.92     81.134   -69.405
1076.35     81.026   -69.223
1092.00     81.005   -68.749
1107.89     80.914   -68.358
1124.00     80.800   -68.245
1140.35     80.689   -67.665
1156.94     80.524   -65.837
1173.77     80.787   -63.725
1190.84     81.255   -63.395
1208.16     81.487   -65.175
1225.73     81.545   -67.283
1243.56     81.404   -68.310
1261.65     81.614   -69.193
1280.00     81.798   -71.459
1298.62     81.729   -74.383
1317.51     81.586   -76.149
1336.67     81.598   -76.848
1356.11     81.715   -78.223
1375.84     81.912   -80.497
1395.85     82.165   -82.897
1416.15     82.446   -86.020
1436.75     82.714   -90.094
1457.65     82.738   -93.842
1478.85     82.598   -95.976
1500.36     82.766   -98.042
1522.19     82.898  -101.535
1544.33     82.727  -104.946
1566.79     82.637  -107.261
1589.58     82.639  -109.839
1612.70     82.409  -112.724
1636.16     82.210  -114.592
1659.95     82.298  -116.267
1684.10     82.229  -119.159
1708.60     82.131  -122.489
1733.45     81.869  -124.966
1758.66     81.808  -126.802
1784.24     81.896  -129.764
1810.19     81.878  -134.536
1836.52     81.453  -139.268
1863.24     81.087  -143.178
1890.34     80.558  -146.602
1917.83     80.185  -148.962
1945.73     79.829  -152.530
1974.03     79.053  -156.104
2002.74     78.373  -155.791
2031.87     78.337  -158.217
2061.43     77.574  -162.496
2091.41     76.730  -162.237
2121.83     76.267  -163.733
2152.69     75.475  -165.469
2184.01     74.768  -166.048
2215.77     73.923  -165.852
2248.00     73.489  -164.461
2280.70     73.024  -166.920
2313.87     72.112  -168.312
2347.53     70.963  -168.935
2381.68     69.612  -163.665
2416.32     69.125  -157.720
2451.46     68.623  -153.819
2487.12     67.921  -150.476
2523.30     67.078  -146.669
2560.00     65.781  -140.872
2597.24     64.907  -128.278
2635.01     64.935  -114.374
2673.34     66.729  -102.314
2712.23     67.316   -98.215
2751.68     69.058   -88.629
2791.70     70.113   -87.766
2832.31     71.724   -86.488
2873.50     72.616   -88.089
2915.30     74.248   -90.248
2957.70     74.839   -96.332
3000.72     75.534  -101.470
3044.37     75.446  -104.151
3088.65     76.171  -106.130
3133.58     76.431  -110.451
3179.16     76.846  -113.529
3225.40     77.097  -118.492
3272.31     77.234  -122.064
3319.91     77.469  -124.892
3368.20     77.760  -127.767
3417.19     78.091  -130.873
3466.89     78.354  -135.844
3517.32     78.522  -137.743
3568.48     78.895  -140.570
3620.39     79.564  -144.033
3673.05     79.961  -149.375
3726.47     80.201  -154.312
3780.67     80.580  -158.294
3835.67     81.014  -163.677
3891.46     81.393  -170.158
3948.06     81.570  -176.190
4005.49     81.750   178.674
4063.75     82.106   173.332
4122.86     82.328   166.847
4182.82     82.398   160.168
4243.66     82.657   154.735
4305.39     82.898   148.051
4368.01     83.064   141.548
4431.55     83.137   134.821
4496.01     83.394   127.985
4561.40     83.473   120.808
4627.75     83.441   113.601
4695.06     83.517   106.885
4763.35     83.536   100.103
4832.64     83.721    93.212
4902.93     83.848    85.760
4974.24     83.843    78.193
5046.60     83.923    70.708
5120.00     84.098    62.444
5194.47     84.021    53.692
5270.03     83.918    45.781
5346.68     83.886    37.203
5424.45     83.654    29.206
5503.35     83.598    21.819
5583.40     83.516    13.376
5664.61     83.351     5.620
5747.01     83.370    -1.937
5830.60     83.349   -10.116
5915.41     83.298   -18.430
6001.45     83.298   -27.131
6088.74     83.226   -36.683
6177.30     83.059   -45.800
6267.15     82.945   -55.294
6358.31     82.657   -64.137
6450.80     82.374   -72.365
6544.62     82.099   -81.009
6639.82     81.898   -88.374
6736.40     81.704   -96.661
6834.38     81.558  -103.627
6933.79     81.498  -111.824
7034.64     81.498  -119.963
7136.96     81.498  -128.929
7240.77     81.520  -138.018
7346.09     81.498  -147.192
7452.94     81.388  -156.999
7561.35     81.336  -166.476
7671.33     81.221  -176.767
7782.91     81.014   173.441
7896.12     80.611   163.710
8010.97     80.275   155.168
8127.49     80.073   146.605
8245.71     80.061   138.232
8365.65     79.938   128.808
8487.33     79.898   119.146
8610.78     79.793   108.927
8736.03     79.598    99.348
8863.09     79.573    89.793
8992.01     79.666    79.732
9122.80     79.644    68.503
9255.50     79.521    56.976
9390.12     79.264    45.981
9526.70     79.071    35.693
9665.27     78.857    25.981
9805.86     78.902    15.235
9948.49     79.043     3.882
10093.2     78.896    -8.552
10240.0     78.713   -21.287
10388.9     78.451   -32.938
10540.1     78.355   -44.900
10693.4     78.157   -57.793
10848.9     77.935   -70.976
11006.7     77.602   -84.383
11166.8     77.080   -97.116
11329.2     76.638  -109.019
11494.0     76.278  -120.764
11661.2     75.960  -132.626
11830.8     75.581  -144.168
12002.9     75.363  -155.689
12177.5     75.248  -168.318
12354.6     74.861   177.997
12534.3     74.322   164.566
12716.6     73.653   152.568
12901.6     73.054   141.471
13089.2     72.388   130.555
13279.6     71.701   120.656
13472.8     71.043   113.872
13668.8     70.987   111.144
13867.6     72.135   107.778
14069.3     73.818    99.050
14273.9     75.776    85.571
14481.5     77.711    67.031
14692.2     79.348    43.363
14905.9     80.371    16.244
15122.7     80.702   -11.493
15342.7     80.704   -39.129
15565.8     80.266   -66.373
15792.2     79.392   -91.749
16021.9     78.311  -114.602
16255.0     77.218  -135.188
16491.4     76.146  -153.877
16731.3     75.499  -172.059
16974.7     75.035   168.147
17221.6     74.398   146.717
17472.1     73.391   125.705
17726.2     72.257   106.702
17984.0     71.281    89.245
18245.6     70.663    71.669
18511.0     70.245    52.460
18780.2     70.076    31.596
19053.4     70.150     6.246
19330.5     70.157   -27.771
19611.7     68.838   -70.146
19897.0     67.022  -107.049
20186.4     66.892  -123.548
20480.0     66.762  -140.044
20777.9     66.632  -156.536
21080.1     66.502  -173.034
21386.7     66.373   170.472
21697.8     66.243   153.980
22013.4     66.113   137.485
22333.6     65.983   120.991
22658.4     65.853   104.493
22988.0     65.723    88.001
23322.4     65.594    71.509
23661.6     65.464    55.013
24005.8     65.334    38.522
24355.0     65.204    22.030
24709.2     65.074     5.530
25068.6     64.944   -10.964
25433.2     64.814   -27.460
25803.2     64.685   -43.948
26178.5     64.555   -60.444
26559.3     64.425   -76.937
26945.6     64.295   -93.431
27337.5     64.165  -109.929
27735.2     64.035  -126.417
28138.6     63.906  -142.913
28547.9     63.776  -159.405
28963.1     63.646  -175.904
29384.4     63.516   167.604
29811.8     63.386   151.110
30245.4     63.256   134.614
30685.3     63.127   118.118
31131.7     62.997   101.630
31584.5     62.867    85.133
32043.9     62.737    68.639
32510.0     62.607    52.145
32982.8     62.477    35.647
33462.6     62.348    19.155
33949.3     62.218     2.661
34443.1     62.088   -13.835
34944.1     61.958   -30.328
35452.4     61.828   -46.820
35968.0     61.698   -63.318
36491.2     61.569   -79.810
37022.0     61.439   -96.304
37560.5     61.309  -112.798
38106.8     61.179  -129.293
38661.1     61.049  -145.787
39223.4     60.919  -162.283
39793.9     60.790  -178.777
