Freq[Hz]     dBSPL  Phase[Deg]
5.00000     -5.384   109.411
5.07273     -4.825   108.461
5.14651     -4.366   107.495
5.22137     -3.806   106.517
5.29732     -3.347   105.524
5.37437     -2.787   104.517
5.45254     -2.229   103.495
5.53185     -1.770   102.459
5.61231     -1.210   101.405
5.69394     -0.751   100.339
5.77676     -0.192    99.255
5.86079      0.368    98.157
5.94604      0.826    97.043
6.03252      1.385    95.911
6.12027      1.845    94.763
6.20929      2.404    93.598
6.29961      2.963    92.418
6.39124      3.423    91.219
6.48420      3.981    90.003
6.57851      4.440    88.769
6.67420      5.000    87.516
6.77128      5.559    86.248
6.86977      6.019    84.959
6.96969      6.578    83.651
7.07107      7.037    82.324
7.17392      7.596    80.979
7.27827      8.155    79.612
7.38413      8.614    78.227
7.49154      9.174    76.822
7.60050      9.633    75.395
7.71105     10.192    73.948
7.82321     10.751    72.481
7.93701     11.210    70.991
8.05245     11.769    69.480
8.16958     12.229    67.946
8.28841     12.788    66.391
8.40896     13.347    64.813
8.53128     13.807    63.212
8.65537     14.365    61.588
8.78126     14.824    59.938
8.90899     15.384    58.267
9.03857     15.943    56.569
9.17004     16.403    54.849
9.30342     16.962    53.103
9.43874     17.420    51.331
9.57603     17.980    49.533
9.71532     18.439    47.710
9.85663     18.998    45.859
10.0000     19.558    43.984
10.1455     20.017    42.080
10.2930     20.575    40.146
10.4427     21.035    38.186
10.5946     21.594    36.198
10.7487     22.153    34.181
10.9051     22.613    32.134
11.0637     23.172    30.058
11.2246     23.631    27.952
11.3879     24.190    25.815
11.5535     24.749    23.647
11.7216     25.209    21.448
11.8921     25.768    19.217
12.0650     26.227    16.952
12.2405     26.787    14.659
12.4186     27.345    12.329
12.5992     27.804     9.966
12.7825     28.364     7.570
12.9684     28.823     5.138
13.1570     29.382     2.671
13.3484     29.942     0.170
13.5426     30.400    -2.367
13.7395     30.959    -4.943
13.9394     31.419    -7.555
14.1421     31.978   -10.205
14.3478     32.437   -12.892
14.5565     32.997   -15.620
14.7683     33.556   -18.385
14.9831     34.015   -21.190
15.2010     34.574   -24.038
15.4221     35.033   -26.926
15.6464     35.593   -29.855
15.8740     36.152   -32.826
16.1049     36.611   -35.840
16.3392     37.170   -38.898
16.5768     37.629   -42.001
16.8179     38.188   -45.148
17.0626     38.748   -48.339
17.3107     39.207   -51.580
17.5625     39.766   -54.866
17.8180     40.226   -58.198
18.0771     40.784   -61.581
18.3401     41.243   -65.010
18.6068     41.803   -68.492
18.8775     42.362   -72.021
19.1521     42.822   -75.602
19.4306     43.381   -79.240
19.7133     43.839   -82.925
20.0000     44.399   -86.667
20.2909     44.958   -90.463
20.5860     45.720   -97.096
20.8855     46.496  -103.303
21.1893     47.113  -108.849
21.4975     47.699  -113.618
21.8102     48.043  -117.529
22.1274     48.499  -120.615
22.4492     48.969  -123.107
22.7758     49.499  -125.447
23.1071     50.089  -128.188
23.4432     50.699  -131.729
23.7841     51.199  -136.122
24.1301     51.610  -140.910
24.4811     52.099  -145.534
24.8372     52.417  -149.499
25.1984     52.899  -152.602
25.5649     53.599  -155.130
25.9368     54.317  -157.739
26.3141     55.399  -161.019
26.6968     56.509  -165.130
27.0851     57.599  -169.802
27.4791     58.299  -174.519
27.8788     59.186  -178.711
28.2843     59.699   178.007
28.6957     60.363   175.739
29.1131     60.999   174.238
29.5365     61.899   172.965
29.9661     62.533   171.391
30.4020     63.197   169.293
30.8442     63.799   166.911
31.2929     64.354   164.757
31.7480     64.799   163.041
32.2098     65.404   161.504
32.6783     65.999   159.447
33.1536     66.746   156.604
33.6359     67.199   153.326
34.1251     67.699   150.310
34.6215     68.145   147.966
35.1250     68.707   145.953
35.6359     69.299   143.569
36.1543     70.026   140.596
36.6802     70.699   137.355
37.2137     71.237   134.262
37.7550     71.789   131.364
38.3041     72.399   128.430
38.8613     72.999   125.314
39.4265     73.533   122.070
40.0000     73.976   118.819
40.5818     74.499   115.587
41.1721     74.799   112.364
41.7710     75.299   109.121
42.3785     75.799   105.744
42.9949     76.299   102.159
43.6203     76.599    98.417
44.2548     77.015    94.638
44.8985     77.339    90.841
45.5515     77.799    86.947
46.2141     78.179    82.957
46.8863     78.496    78.988
47.5683     78.699    75.135
48.2602     78.921    71.337
48.9621     79.129    67.481
49.6743     79.399    63.603
50.3968     79.537    59.784
51.1299     79.699    55.940
51.8736     79.834    52.019
52.6281     79.970    48.246
53.3936     80.099    44.641
54.1702     80.299    40.842
54.9581     80.399    36.992
55.7575     80.324    33.648
56.5685     80.499    30.529
57.3914     80.527    27.213
58.2261     80.599    24.016
59.0730     80.668    21.004
59.9323     80.599    17.892
60.8040     80.699    14.985
61.6884     80.744    12.341
62.5857     80.699     9.564
63.4960     80.760     6.829
64.4196     80.708     4.256
65.3566     80.799     1.585
66.3073     80.705    -1.064
67.2717     80.799    -3.528
68.2502     80.799    -6.085
69.2429     80.799    -8.633
70.2501     80.699   -10.940
71.2719     80.899   -13.240
72.3086     80.999   -15.412
73.3603     80.999   -17.468
74.4274     81.175   -19.677
75.5099     81.180   -21.882
76.6083     81.099   -23.940
77.7226     81.199   -25.993
78.8531     81.167   -28.040
80.0000     81.299   -30.147
81.1636     81.236   -32.171
82.3442     81.284   -34.124
83.5419     81.387   -36.159
84.7570     81.299   -38.043
85.9899     81.499   -39.775
87.2406     81.577   -41.675
88.5096     81.499   -43.622
89.7970     81.599   -45.344
91.1031     81.699   -47.365
92.4282     81.799   -49.357
93.7726     81.799   -51.406
95.1366     81.799   -53.152
96.5204     81.899   -55.139
97.9243     81.899   -57.209
99.3486     81.999   -59.344
100.794     82.075   -61.310
102.260     81.999   -63.093
103.747     82.199   -64.874
105.256     82.199   -66.929
106.787     82.239   -68.809
108.340     82.299   -70.954
109.916     82.299   -72.780
111.515     82.399   -74.824
113.137     82.499   -76.722
114.783     82.499   -78.732
116.452     82.600   -80.831
118.146     82.699   -82.937
119.865     82.599   -85.553
121.608     82.599   -86.895
123.377     82.699   -89.070
125.171     82.679   -90.942
126.992     82.799   -92.822
128.839     82.781   -94.781
130.713     82.705   -96.807
132.615     82.786   -98.914
134.543     82.682  -100.981
136.500     82.699  -103.039
138.486     82.759  -104.907
140.500     82.649  -106.965
142.544     82.599  -108.907
144.617     82.579  -110.623
146.721     82.499  -112.215
148.855     82.466  -113.901
151.020     82.399  -115.414
153.217     82.316  -116.832
155.445     82.182  -118.201
157.706     82.166  -119.745
160.000     82.099  -121.257
162.327     81.949  -122.549
164.688     81.983  -123.343
167.084     81.913  -124.110
169.514     81.956  -125.101
171.980     81.942  -126.220
174.481     81.916  -127.147
177.019     81.899  -128.080
179.594     81.884  -128.995
182.206     81.874  -129.938
184.856     81.899  -131.050
187.545     81.999  -132.159
190.273     82.012  -133.228
193.041     82.156  -134.348
195.849     82.137  -135.555
198.697     82.136  -136.885
201.587     82.199  -138.266
204.520     82.199  -139.628
207.494     82.299  -140.956
210.512     82.299  -142.674
213.574     82.299  -144.426
216.681     82.313  -145.926
219.833     82.202  -147.415
223.030     82.315  -148.796
226.274     82.293  -150.335
229.565     82.195  -151.978
232.905     82.130  -153.446
236.292     82.072  -155.079
239.729     82.069  -156.582
243.216     81.954  -157.976
246.754     81.730  -159.199
250.343     81.810  -160.481
253.984     81.624  -161.921
257.678     81.512  -163.498
261.426     81.256  -164.573
265.229     81.216  -165.324
269.087     81.018  -166.122
273.001     80.829  -166.218
276.972     80.754  -166.246
281.000     80.727  -166.427
285.088     80.638  -166.537
289.234     80.557  -166.684
293.441     80.592  -166.847
297.709     80.626  -166.981
302.040     80.698  -167.280
306.433     80.698  -167.808
310.890     80.720  -168.588
315.412     80.798  -169.388
320.000     80.810  -170.246
324.655     80.798  -171.144
329.377     80.819  -172.088
334.168     80.641  -173.076
339.028     80.567  -173.925
343.959     80.498  -174.647
348.962     80.446  -175.247
354.038     80.407  -175.697
359.188     80.319  -176.040
364.412     80.197  -176.310
369.713     80.098  -176.563
375.090     80.098  -176.853
380.546     80.153  -177.236
386.081     80.098  -177.733
391.697     80.098  -178.343
397.394     80.034  -179.032
403.175     79.998  -179.690
409.039     79.810   179.729
414.989     79.792   179.321
421.025     79.698   179.184
427.149     79.498   179.343
433.362     79.433   179.773
439.665     79.337  -179.589
446.060     79.457  -178.941
452.548     79.526  -178.483
459.131     79.703  -178.385
465.809     79.819  -178.789
472.584     80.037  -179.706
479.458     80.156   178.929
486.432     80.324   177.204
493.507     80.298   175.265
500.686     80.198   173.281
507.968     80.118   171.460
515.357     79.933   169.906
522.853     79.779   168.630
530.458     79.655   167.613
538.174     79.412   166.793
546.002     79.212   166.053
553.943     79.098   165.286
562.001     78.902   164.462
570.175     78.894   163.617
578.469     78.698   162.832
586.883     78.572   162.191
595.419     78.398   161.685
604.080     78.306   161.195
612.866     78.398   160.540
621.780     78.358   159.522
630.824     78.298   158.037
640.000     78.198   156.168
649.309     78.086   154.121
658.753     77.852   152.134
668.335     77.642   150.457
678.056     77.321   149.321
687.919     77.034   148.649
697.925     76.902   148.160
708.077     76.798   147.500
718.376     76.698   146.430
728.825     76.684   144.973
739.426     76.498   143.389
750.181     76.391   142.004
761.093     76.168   140.992
772.163     76.098   140.229
783.394     75.998   139.318
794.789     75.998   137.878
806.349     75.991   135.926
818.078     75.734   133.819
829.977     75.489   132.167
842.050     75.224   131.426
854.298     75.098   131.346
866.724     75.230   130.829
879.330     75.426   128.445
892.120     75.669   123.544
905.097     75.626   116.391
918.262     75.145   107.019
931.618     74.063    95.801
945.169     72.079    83.535
958.917     68.822    72.398
972.864     63.158    79.893
987.015     59.126   144.753
1001.37     63.970  -175.227
1015.94     67.326  -179.366
1030.71     68.730   172.139
1045.71     69.274   166.445
1060.92     69.424   164.077
1076.35     69.615   163.336
1092.00     69.963   162.541
1107.89     70.159   161.921
1124.00     70.473   161.942
1140.35     71.173   160.909
1156.94     71.815   156.493
1173.77     72.157   149.090
1190.84     71.874   141.622
1208.16     71.149   136.893
1225.73     70.633   134.485
1243.56     70.263   131.175
1261.65     69.794   126.687
1280.00     69.036   124.904
1298.62     68.690   126.178
1317.51     69.100   123.876
1336.67     69.002   116.130
1356.11     67.692   111.535
1375.84     66.709   117.766
1395.85     67.745   123.452
1416.15     68.857   117.734
1436.75     68.932   109.148
1457.65     68.408   104.715
1478.85     67.932   102.057
1500.36     67.335    99.109
1522.19     66.565   100.944
1544.33     66.852   104.275
1566.79     67.632    98.740
1589.58     67.266    88.535
1612.70     65.879    83.481
1636.16     64.656    84.522
1659.95     64.063    90.253
1684.10     64.852    98.362
1708.60     66.674    96.366
1733.45     67.277    86.492
1758.66     67.144    79.385
1784.24     66.916    73.584
1810.19     66.240    67.616
1836.52     65.305    67.550
1863.24     65.309    64.506
1890.34     63.857    59.619
1917.83     62.647    73.117
1945.73     64.577    80.215
1974.03     65.544    71.202
2002.74     65.661    62.391
2031.87     65.237    49.922
2061.43     62.983    47.352
2091.41     62.670    58.064
2121.83     63.307    53.673
2152.69     61.957    51.251
2184.01     60.699    62.195
2215.77     61.925    79.338
2248.00     64.427    79.206
2280.70     64.860    70.924
2313.87     65.600    69.526
2347.53     66.681    60.781
2381.68     66.703    49.450
2416.32     65.671    41.463
2451.46     64.432    46.946
2487.12     64.975    51.162
2523.30     65.143    51.228
2560.00     66.086    53.689
2597.24     67.456    49.716
2635.01     68.553    38.920
2673.34     68.509    26.747
2712.23     68.031    15.348
2751.68     66.404     9.535
2791.70     65.680    11.972
2832.31     65.389    11.923
2873.50     65.796    14.598
2915.30     66.721    13.372
2957.70     67.758     4.537
3000.72     67.518    -9.589
3044.37     66.352   -17.962
3088.65     65.574   -25.064
3133.58     63.502   -27.758
3179.16     62.713   -15.019
3225.40     64.836    -8.984
3272.31     66.528   -22.437
3319.91     66.528   -37.253
3368.20     65.460   -50.093
3417.19     64.364   -57.239
3466.89     62.375   -57.590
3517.32     62.553   -47.575
3568.48     63.581   -50.214
3620.39     63.724   -61.297
3673.05     62.850   -65.326
3726.47     62.401   -67.400
3780.67     62.293   -65.787
3835.67     63.481   -63.721
3891.46     63.847   -75.082
3948.06     63.186   -77.772
4005.49     63.316   -81.681
4063.75     62.778   -79.598
4122.86     64.477   -76.971
4182.82     64.862   -90.494
4243.66     64.446  -101.751
4305.39     62.723  -103.527
4368.01     63.664   -93.674
4431.55     65.070  -102.924
4496.01     66.024  -118.187
4561.40     64.755  -136.788
4627.75     62.553  -133.745
4695.06     63.453  -131.170
4763.35     64.671  -143.137
4832.64     64.731  -162.088
4902.93     63.274  -174.848
4974.24     61.930   173.509
5046.60     60.331   172.520
5120.00     60.805   165.230
5194.47     60.554   149.748
5270.03     59.169   131.725
5346.68     58.128   119.282
5424.45     55.575    99.258
5503.35     53.280   101.622
5583.40     53.403    93.416
5664.61     53.738    68.217
5747.01     51.273    18.988
5830.60     48.419   -92.282
5915.41     48.271    80.633
6001.45     49.795    -0.567
6088.74     50.713   -42.212
6177.30     51.640   -74.008
6267.15     53.064  -171.515
6358.31     47.682   -85.056
6450.80     49.025   -22.468
6544.62     51.993  -152.723
6639.82     49.380   136.419
6736.40     45.092    24.010
6834.38     43.714   132.323
6933.79     47.182  -176.028
7034.64     46.682    37.979
7136.96     48.344   -56.371
7240.77     45.636    71.124
7346.09     46.596   127.626
7452.94     49.313   -11.140
7561.35     49.058  -128.089
7671.33     48.372    30.250
7782.91     51.067   -56.091
7896.12     49.083   -81.462
8010.97     48.787   -89.277
8127.49     49.010  -111.699
8245.71     47.618  -130.014
8365.65     45.382  -150.699
8487.33     43.210  -159.767
8610.78     43.068  -139.360
8736.03     45.725   174.972
8863.09     44.990    12.665
8992.01     45.948  -146.352
9122.80     43.030    36.361
9255.50     45.583  -103.176
9390.12     46.570  -138.191
9526.70     47.567  -123.464
9665.27     49.788  -148.008
9805.86     48.426  -156.504
9948.49     50.443  -160.266
10093.2     49.293   171.233
10240.0     48.673   171.655
10388.9     48.653   149.718
10540.1     46.416   152.703
10693.4     46.809   143.663
10848.9     44.010   135.412
11006.7     43.150   138.309
11166.8     40.638   142.956
11329.2     40.735   157.915
11494.0     42.546   172.972
11661.2     45.478   175.078
11830.8     48.802   166.428
12002.9     49.741   157.161
12177.5     52.006   151.521
12354.6     51.997   142.673
12534.3     53.782   132.585
12716.6     52.941   122.958
12901.6     53.809   107.141
13089.2     51.746   101.255
13279.6     51.598    92.138
13472.8     51.314   114.839
13668.8     52.111   111.867
13867.6     54.738    96.915
14069.3     54.176    67.332
14273.9     54.285    43.587
14481.5     53.352    19.278
14692.2     53.046    -3.793
14905.9     51.046   -23.529
15122.7     49.891  -124.407
15342.7     48.199     2.179
15565.8     45.915   -80.460
15792.2     45.143  -171.805
16021.9     43.016   -63.905
16255.0     39.961     6.281
16491.4     38.997   153.466
16731.3     38.092   104.293
16974.7     38.986    83.823
17221.6     38.561    71.959
17472.1     37.289    52.077
17726.2     35.157    29.253
17984.0     32.118    29.306
18245.6     35.902     3.433
18511.0     34.412    10.646
18780.2     37.046    69.804
19053.4     41.814    78.103
19330.5     40.120    76.613
19611.7     36.954   141.746
19897.0     38.433   166.145
20186.4     38.170   123.431
20480.0     37.907    80.701
20777.9     37.644    37.981
21080.1     37.380    -4.749
21386.7     37.117   -47.479
21697.8     36.854   -90.197
22013.4     36.591  -132.921
22333.6     36.328  -175.644
22658.4     36.064   141.620
22988.0     35.801    98.902
23322.4     35.538    56.186
23661.6     35.275    13.454
24005.8     35.011   -29.262
24355.0     34.748   -71.978
24709.2     34.485  -114.716
25068.6     34.222  -157.441
25433.2     33.959   159.827
25803.2     33.695   117.119
26178.5     33.432    74.391
26559.3     33.169    31.673
26945.6     32.906   -11.055
27337.5     32.642   -53.785
27735.2     32.379   -96.495
28138.6     32.116  -139.224
28547.9     31.853   178.056
28963.1     31.590   135.324
29384.4     31.326    92.604
29811.8     31.063    49.878
30245.4     30.800     7.150
30685.3     30.537   -35.580
31131.7     30.273   -78.290
31584.5     30.010  -121.019
32043.9     29.747  -163.745
32510.0     29.484   153.533
32982.8     29.220   110.797
33462.6     28.957    68.083
33949.3     28.694    25.355
34443.1     28.431   -17.369
34944.1     28.168   -60.091
35452.4     27.904  -102.812
35968.0     27.641  -145.548
36491.2     27.378   171.734
37022.0     27.115   129.014
37560.5     26.851    86.290
38106.8     26.588    43.562
38661.1     26.325     0.842
39223.4     26.062   -41.888
39793.9     25.799   -84.617
