Freq[Hz]     dBSPL  Phase[Deg]
5.00000     33.251   -56.178
5.07273     32.540   -52.223
5.14651     31.830   -48.266
5.22137     31.119   -44.308
5.29732     29.999   -43.021
5.37437     28.630   -43.362
5.45254     27.261   -43.702
5.53185     25.814   -37.099
5.61231     24.248   -20.077
5.69394     22.683    -3.052
5.77676     21.760    11.888
5.86079     22.192    22.433
5.94604     22.624    32.979
6.03252     23.605    40.982
6.12027     25.503    44.730
6.20929     27.401    48.480
6.29961     28.635    48.270
6.39124     29.320    44.787
6.48420     30.005    41.305
6.57851     30.265    36.939
6.67420     30.438    32.396
6.77128     30.509    27.687
6.86977     30.211    22.383
6.96969     29.912    17.081
7.07107     29.058    10.997
7.17392     27.964     4.580
7.27827     26.366    -4.848
7.38413     23.401   -22.438
7.49154     20.435   -40.025
7.60050     18.228   -64.843
7.71105     16.085   -90.270
7.82321     17.715  -124.797
7.93701     21.367  -164.196
8.05245     24.264   167.657
8.16958     26.247   153.128
8.28841     28.000   140.657
8.40896     29.268   132.526
8.53128     30.343   124.627
8.65537     30.850   117.404
8.78126     31.170   110.154
8.90899     30.922   102.818
9.03857     30.545    95.396
9.17004     29.866    87.769
9.30342     28.834    79.710
9.43874     27.268    70.997
9.57603     24.328    58.775
9.71532     20.273    43.705
9.85663     18.844    11.038
10.0000     18.276   -27.390
10.1455     22.018   -86.730
10.2930     25.441  -133.362
10.4427     28.077  -148.772
10.5946     30.103  -160.170
10.7487     31.757  -169.124
10.9051     32.764  -176.615
11.0637     33.593   176.255
11.2246     34.166   169.656
11.3879     34.472   164.091
11.5535     34.686   159.112
11.7216     34.812   154.968
11.8921     34.825   153.227
12.0650     34.920   152.716
12.2405     35.189   153.449
12.4186     35.800   154.921
12.5992     36.597   156.326
12.7825     37.573   157.312
12.9684     38.747   156.766
13.1570     39.940   155.319
13.3484     41.067   153.104
13.5426     42.100   150.253
13.7395     43.025   147.113
13.9394     43.889   144.067
14.1421     44.588   141.382
14.3478     45.223   139.131
14.5565     45.865   137.373
14.7683     46.509   136.144
14.9831     47.083   135.341
15.2010     47.666   134.955
15.4221     48.255   134.732
15.6464     48.794   134.729
15.8740     49.358   134.948
16.1049     49.929   135.526
16.3392     50.456   136.607
16.5768     51.021   138.133
16.8179     51.713   139.914
17.0626     52.555   141.576
17.3107     53.408   142.761
17.5625     54.297   143.152
17.8180     55.221   142.352
18.0771     56.006   140.789
18.3401     56.729   138.715
18.6068     57.235   136.435
18.8775     57.619   134.410
19.1521     58.007   132.869
19.4306     58.328   131.922
19.7133     58.783   131.536
20.0000     59.401   131.162
20.2909     60.058   130.290
20.5860     60.790   128.420
20.8855     61.486   125.696
21.1893     62.135   122.171
21.4975     62.801   118.193
21.8102     63.260   114.002
22.1274     63.781   109.774
22.4492     64.238   105.616
22.7758     64.693   101.659
23.1071     64.991    98.164
23.4432     65.200    95.512
23.7841     65.318    94.420
24.1301     65.602    95.400
24.4811     65.973    97.880
24.8372     66.869   100.782
25.1984     67.891   102.589
25.5649     69.033   102.323
25.9368     70.119   100.116
26.3141     70.851    96.651
26.6968     71.322    92.813
27.0851     71.548    89.576
27.4791     71.628    87.660
27.8788     71.712    87.694
28.2843     71.948    88.865
28.6957     72.629    89.989
29.1131     73.426    89.644
29.5365     74.256    87.393
29.9661     75.034    83.428
30.4020     75.539    78.700
30.8442     75.909    74.344
31.2929     76.142    71.071
31.7480     76.323    69.052
32.2098     76.678    67.854
32.6783     77.130    66.697
33.1536     77.569    65.253
33.6359     77.986    63.691
34.1251     78.368    62.297
34.6215     78.663    61.071
35.1250     78.972    59.714
35.6359     79.199    57.869
36.1543     79.359    55.555
36.6802     79.442    52.999
37.2137     79.491    50.471
37.7550     79.559    48.084
38.3041     79.657    45.726
38.8613     79.789    43.191
39.4265     79.962    40.463
40.0000     80.173    37.825
40.5818     80.319    35.591
41.1721     80.593    33.632
41.7710     80.985    31.589
42.3785     81.285    29.348
42.9949     81.484    27.330
43.6203     81.871    25.705
44.2548     82.147    23.998
44.8985     82.413    21.702
45.5515     82.577    19.159
46.2141     82.846    16.829
46.8863     83.032    14.723
47.5683     83.243    12.594
48.2602     83.479    10.588
48.9621     83.750     8.948
49.6743     84.037     7.607
50.3968     84.334     6.490
51.1299     84.626     5.601
51.8736     84.900     4.800
52.6281     85.248     3.899
53.3936     85.568     2.793
54.1702     85.768     1.437
54.9581     85.860    -0.066
55.7575     86.058    -1.647
56.5685     86.247    -3.476
57.3914     86.361    -5.277
58.2261     86.497    -6.434
59.0730     86.749    -7.143
59.9323     87.006    -8.061
60.8040     87.258    -8.674
61.6884     87.571    -8.792
62.5857     87.952    -9.814
63.4960     88.224   -11.472
64.4196     88.396   -12.045
65.3566     88.774   -12.867
66.3073     89.042   -14.784
67.2717     89.261   -16.181
68.2502     89.382   -17.314
69.2429     89.599   -18.119
70.2501     89.908   -18.782
71.2719     90.206   -20.728
72.3086     90.321   -22.253
73.3603     90.532   -22.902
74.4274     90.853   -23.891
75.5099     91.186   -25.459
76.6083     91.431   -26.958
77.7226     91.682   -28.640
78.8531     91.795   -29.822
80.0000     92.093   -30.891
81.1636     92.288   -32.706
82.3442     92.486   -34.111
83.5419     92.688   -35.536
84.7570     92.897   -36.853
85.9899     93.199   -38.343
87.2406     93.508   -39.983
88.5096     93.723   -41.662
89.7970     94.047   -43.529
91.1031     94.341   -45.771
92.4282     94.578   -48.037
93.7726     94.855   -50.304
95.1366     95.071   -53.244
96.5204     95.154   -56.121
97.9243     95.282   -58.857
99.3486     95.310   -61.664
100.794     95.337   -63.830
102.260     95.378   -65.459
103.747     95.480   -66.792
105.256     95.652   -68.534
106.787     95.781   -70.719
108.340     95.915   -72.843
109.916     95.969   -75.089
111.515     96.087   -77.571
113.137     96.086   -79.978
114.783     96.054   -82.171
116.452     96.024   -84.293
118.146     96.000   -86.296
119.865     95.946   -88.121
121.608     95.925   -89.376
123.377     95.936   -90.967
125.171     95.936   -92.717
126.992     95.870   -94.482
128.839     95.777   -96.322
130.713     95.740   -98.073
132.615     95.726   -99.721
134.543     95.658  -101.509
136.500     95.612  -103.235
138.486     95.530  -104.750
140.500     95.353  -106.183
142.544     95.147  -107.346
144.617     94.979  -108.207
146.721     94.876  -108.883
148.855     94.797  -109.473
151.020     94.690  -110.000
153.217     94.553  -110.509
155.445     94.447  -111.099
157.706     94.343  -111.853
160.000     94.229  -112.732
162.327     94.103  -113.421
164.688     93.966  -113.472
167.084     93.828  -112.997
169.514     93.744  -112.798
171.980     93.672  -113.021
174.481     93.597  -113.306
177.019     93.476  -113.274
179.594     93.408  -112.756
182.206     93.396  -112.160
184.856     93.443  -111.959
187.545     93.462  -111.898
190.273     93.514  -111.721
193.041     93.603  -111.616
195.849     93.711  -111.719
198.697     93.796  -111.813
201.587     93.857  -111.873
204.520     93.954  -112.147
207.494     94.071  -112.588
210.512     94.192  -113.165
213.574     94.299  -113.860
216.681     94.411  -114.551
219.833     94.500  -115.090
223.030     94.596  -115.511
226.274     94.716  -116.075
229.565     94.868  -116.847
232.905     95.007  -117.805
236.292     95.125  -118.862
239.729     95.234  -119.987
243.216     95.339  -121.182
246.754     95.423  -122.479
250.343     95.481  -123.891
253.984     95.523  -125.342
257.678     95.533  -126.797
261.426     95.527  -128.271
265.229     95.486  -129.712
269.087     95.424  -131.094
273.001     95.335  -132.388
276.972     95.223  -133.563
281.000     95.083  -134.664
285.088     94.914  -135.658
289.234     94.724  -136.475
293.441     94.517  -137.091
297.709     94.295  -137.494
302.040     94.065  -137.666
306.433     93.823  -137.594
310.890     93.575  -137.241
315.412     93.339  -136.617
320.000     93.123  -135.737
324.655     92.935  -134.640
329.377     92.783  -133.366
334.168     92.662  -131.859
339.028     92.589  -130.292
343.959     92.563  -128.741
348.962     92.576  -127.272
354.038     92.623  -125.940
359.188     92.697  -124.735
364.412     92.791  -123.690
369.713     92.894  -122.840
375.090     92.999  -122.167
380.546     93.103  -121.619
386.081     93.195  -121.189
391.697     93.272  -120.831
397.394     93.335  -120.516
403.175     93.381  -120.229
409.039     93.418  -119.922
414.989     93.449  -119.564
421.025     93.477  -119.145
427.149     93.504  -118.665
433.362     93.534  -118.136
439.665     93.567  -117.553
446.060     93.600  -116.978
452.548     93.636  -116.442
459.131     93.674  -115.943
465.809     93.713  -115.486
472.584     93.747  -115.070
479.458     93.772  -114.674
486.432     93.785  -114.258
493.507     93.781  -113.784
500.686     93.757  -113.201
507.968     93.719  -112.474
515.357     93.672  -111.565
522.853     93.623  -110.429
530.458     93.585  -109.068
538.174     93.570  -107.547
546.002     93.592  -105.930
553.943     93.657  -104.246
562.001     93.764  -102.572
570.175     93.904  -100.982
578.469     94.071   -99.535
586.883     94.254   -98.292
595.419     94.445   -97.239
604.080     94.645   -96.320
612.866     94.852   -95.493
621.780     95.070   -94.728
630.824     95.304   -94.025
640.000     95.559   -93.431
649.309     95.839   -93.001
658.753     96.149   -92.798
668.335     96.490   -92.906
678.056     96.836   -93.396
687.919     97.172   -94.326
697.925     97.483   -95.692
708.077     97.751   -97.408
718.376     97.971   -99.388
728.825     98.132  -101.520
739.426     98.230  -103.706
750.181     98.271  -105.860
761.093     98.262  -107.908
772.163     98.223  -109.775
783.394     98.170  -111.517
794.789     98.111  -113.262
806.349     98.047  -115.106
818.078     97.960  -117.233
829.977     97.827  -119.754
842.050     97.611  -122.716
854.298     97.272  -126.058
866.724     96.778  -129.554
879.330     96.074  -132.975
892.120     95.131  -135.726
905.097     93.933  -136.967
918.262     92.523  -135.534
931.618     91.092  -130.142
945.169     90.072  -120.696
958.917     89.915  -109.859
972.864     90.523  -101.645
987.015     91.394   -97.876
1001.37     92.142   -97.823
1015.94     92.577  -100.074
1030.71     92.658  -103.357
1045.71     92.408  -106.809
1060.92     91.861  -109.650
1076.35     91.085  -111.137
1092.00     90.158  -110.889
1107.89     89.188  -108.853
1124.00     88.314  -105.238
1140.35     87.593  -100.440
1156.94     86.997   -94.952
1173.77     86.532   -89.087
1190.84     86.220   -82.792
1208.16     86.078   -76.364
1225.73     86.135   -70.358
1243.56     86.341   -65.210
1261.65     86.582   -61.159
1280.00     86.787   -58.087
1298.62     86.938   -55.488
1317.51     87.027   -52.870
1336.67     87.077   -50.143
1356.11     87.147   -47.317
1375.84     87.262   -44.443
1395.85     87.415   -41.843
1416.15     87.576   -39.782
1436.75     87.698   -38.213
1457.65     87.755   -36.848
1478.85     87.751   -35.346
1500.36     87.735   -33.557
1522.19     87.755   -31.609
1544.33     87.806   -29.829
1566.79     87.841   -28.391
1589.58     87.817   -27.048
1612.70     87.743   -25.518
1636.16     87.678   -23.711
1659.95     87.623   -21.870
1684.10     87.538   -20.173
1708.60     87.387   -18.139
1733.45     87.224   -15.192
1758.66     87.205   -11.301
1784.24     87.414    -7.401
1810.19     87.770    -4.589
1836.52     88.141    -2.906
1863.24     88.462    -1.871
1890.34     88.757    -1.086
1917.83     89.059    -0.442
1945.73     89.401    -0.082
1974.03     89.786    -0.423
2002.74     90.168    -1.898
2031.87     90.445    -4.494
2061.43     90.529    -7.560
2091.41     90.445   -10.228
2121.83     90.303   -11.996
2152.69     90.199   -13.108
2184.01     90.169   -14.011
2215.77     90.253   -15.110
2248.00     90.433   -16.960
2280.70     90.594   -20.084
2313.87     90.598   -23.984
2347.53     90.436   -27.730
2381.68     90.219   -30.904
2416.32     90.000   -33.837
2451.46     89.790   -36.685
2487.12     89.636   -39.286
2523.30     89.514   -42.195
2560.00     89.316   -45.571
2597.24     88.990   -48.454
2635.01     88.662   -50.345
2673.34     88.462   -51.895
2712.23     88.356   -53.681
2751.68     88.286   -55.947
2791.70     88.202   -58.720
2832.31     88.038   -61.725
2873.50     87.774   -64.596
2915.30     87.419   -66.817
2957.70     87.051   -68.106
3000.72     86.802   -68.953
3044.37     86.593   -70.376
3088.65     86.272   -71.974
3133.58     85.839   -72.475
3179.16     85.479   -71.868
3225.40     85.284   -71.660
3272.31     84.972   -72.333
3319.91     84.494   -71.932
3368.20     84.077   -69.611
3417.19     83.932   -66.068
3466.89     84.163   -63.290
3517.32     84.394   -63.111
3568.48     84.351   -63.042
3620.39     84.305   -61.756
3673.05     84.463   -60.253
3726.47     84.687   -60.296
3780.67     84.652   -60.781
3835.67     84.612   -59.550
3891.46     84.752   -58.172
3948.06     85.009   -57.479
4005.49     85.165   -58.136
4063.75     85.208   -58.048
4122.86     85.335   -58.485
4182.82     85.382   -58.549
4243.66     85.556   -59.191
4305.39     85.534   -59.849
4368.01     85.635   -59.447
4431.55     85.812   -59.316
4496.01     86.040   -60.405
4561.40     86.023   -61.547
4627.75     86.029   -62.084
4695.06     85.993   -62.270
4763.35     85.980   -63.111
4832.64     85.831   -62.986
4902.93     85.832   -62.583
4974.24     85.928   -62.616
5046.60     85.855   -62.941
5120.00     86.051   -62.012
5194.47     86.246   -63.441
5270.03     86.253   -64.519
5346.68     86.351   -65.094
5424.45     86.388   -66.860
5503.35     86.335   -68.677
5583.40     86.114   -70.608
5664.61     85.872   -71.788
5747.01     85.592   -73.270
5830.60     85.166   -74.137
5915.41     84.831   -74.534
6001.45     84.313   -74.690
6088.74     83.806   -72.825
6177.30     83.466   -70.969
6267.15     83.052   -68.584
6358.31     82.776   -65.278
6450.80     82.515   -62.230
6544.62     82.402   -58.398
6639.82     82.411   -55.229
6736.40     82.499   -52.023
6834.38     82.586   -49.063
6933.79     82.897   -45.715
7034.64     83.237   -43.830
7136.96     83.699   -42.324
7240.77     84.029   -42.860
7346.09     84.318   -43.209
7452.94     84.462   -44.577
7561.35     84.482   -45.077
7671.33     84.494   -45.386
7782.91     84.439   -45.509
7896.12     84.358   -45.502
8010.97     84.138   -45.303
8127.49     83.918   -44.194
8245.71     83.714   -42.922
8365.65     83.577   -40.686
8487.33     83.464   -38.728
8610.78     83.499   -36.104
8736.03     83.588   -34.451
8863.09     83.693   -32.966
8992.01     83.802   -31.851
9122.80     83.952   -30.705
9255.50     84.178   -30.077
9390.12     84.397   -30.372
9526.70     84.421   -31.845
9665.27     84.168   -33.075
9805.86     83.639   -32.942
9948.49     83.129   -30.320
10093.2     82.805   -26.159
10240.0     82.726   -22.190
10388.9     82.756   -18.859
10540.1     82.792   -15.865
10693.4     82.922   -12.937
10848.9     83.207   -10.871
11006.7     83.441   -10.753
11166.8     83.382   -12.159
11329.2     82.510   -11.174
11494.0     82.104     0.450
11661.2     83.255     6.488
11830.8     83.930     7.001
12002.9     84.578     8.025
12177.5     85.228     6.705
12354.6     85.515     4.091
12534.3     85.648     2.015
12716.6     85.572     0.292
12901.6     85.188     0.726
13089.2     85.004     4.134
13279.6     85.187     7.828
13472.8     85.570    10.569
13668.8     85.989    11.401
13867.6     86.327    10.884
14069.3     86.499    10.058
14273.9     86.699     9.538
14481.5     86.807     7.442
14692.2     86.401     5.691
14905.9     85.783     7.355
15122.7     85.488    11.677
15342.7     85.613    15.635
15565.8     85.851    17.780
15792.2     86.014    19.475
16021.9     86.205    21.179
16255.0     86.402    21.713
16491.4     86.391    21.833
16731.3     86.338    22.716
16974.7     86.515    23.103
17221.6     86.720    19.925
17472.1     86.308    14.881
17726.2     85.303    14.069
17984.0     84.490    18.501
18245.6     84.281    24.358
18511.0     84.543    27.991
18780.2     84.791    28.630
19053.4     85.051    28.740
19330.5     85.647    26.585
19611.7     85.868    20.136
19897.0     85.417    15.106
20186.4     85.417    15.106
20480.0     85.417    15.106
20777.9     85.417    15.106
21080.1     85.417    15.106
21386.7     85.417    15.106
21697.8     85.417    15.106
22013.4     85.417    15.106
22333.6     85.417    15.106
22658.4     85.417    15.106
22988.0     85.417    15.106
23322.4     85.417    15.106
23661.6     85.417    15.106
24005.8     85.417    15.106
24355.0     85.417    15.106
24709.2     85.417    15.106
25068.6     85.417    15.106
25433.2     85.417    15.106
25803.2     85.417    15.106
26178.5     85.417    15.106
26559.3     85.417    15.106
26945.6     85.417    15.106
27337.5     85.417    15.106
27735.2     85.417    15.106
28138.6     85.417    15.106
28547.9     85.417    15.106
28963.1     85.417    15.106
29384.4     85.417    15.106
29811.8     85.417    15.106
30245.4     85.417    15.106
30685.3     85.417    15.106
31131.7     85.417    15.106
31584.5     85.417    15.106
32043.9     85.417    15.106
32510.0     85.417    15.106
32982.8     85.417    15.106
33462.6     85.417    15.106
33949.3     85.417    15.106
34443.1     85.417    15.106
34944.1     85.417    15.106
35452.4     85.417    15.106
35968.0     85.417    15.106
36491.2     85.417    15.106
37022.0     85.417    15.106
37560.5     85.417    15.106
38106.8     85.417    15.106
38661.1     85.417    15.106
39223.4     85.417    15.106
39793.9     85.417    15.106
