Freq[Hz]     dBSPL  Phase[Deg]
5.00000     39.999   -21.014
5.07273     39.229   -17.160
5.14651     38.460   -13.307
5.22137     37.690    -9.454
5.29732     36.512    -8.274
5.37437     35.084    -8.723
5.45254     33.656    -9.171
5.53185     32.150    -2.680
5.61231     30.525    14.230
5.69394     28.901    31.140
5.77676     27.919    45.964
5.86079     28.292    56.392
5.94604     28.665    66.818
6.03252     29.588    74.700
6.12027     31.427    78.326
6.20929     33.267    81.951
6.29961     34.442    81.614
6.39124     35.068    78.002
6.48420     35.693    74.391
6.57851     35.894    69.893
6.67420     36.009    65.215
6.77128     36.021    60.371
6.86977     35.664    54.928
6.96969     35.306    49.486
7.07107     34.393    43.261
7.17392     33.241    36.699
7.27827     31.584    27.125
7.38413     28.560     9.387
7.49154     25.535    -8.351
7.60050     23.269   -33.321
7.71105     21.067   -58.903
7.82321     22.639   -93.587
7.93701     26.232  -133.145
8.05245     29.070  -161.454
8.16958     30.994  -176.148
8.28841     32.688   171.215
8.40896     33.897   162.915
8.53128     34.913   154.845
8.65537     35.361   147.448
8.78126     35.623   140.022
8.90899     35.315   132.507
9.03857     34.880   124.904
9.17004     34.143   117.093
9.30342     33.051   108.846
9.43874     31.427    99.944
9.57603     28.428    87.530
9.71532     24.314    72.265
9.85663     22.826    39.400
10.0000     22.199     0.772
10.1455     25.882   -58.773
10.2930     29.246  -105.611
10.4427     31.823  -121.231
10.5946     33.790  -132.842
10.7487     35.386  -142.011
10.9051     36.334  -149.722
11.0637     37.105  -157.073
11.2246     37.619  -163.899
11.3879     37.865  -169.692
11.5535     38.021  -174.903
11.7216     38.088  -179.282
11.8921     38.042   178.738
12.0650     38.078   177.985
12.2405     38.288   178.472
12.4186     38.840   179.695
12.5992     39.578  -179.154
12.7825     40.495  -178.424
12.9684     41.611  -179.231
13.1570     42.744   179.058
13.3484     43.814   176.575
13.5426     44.788   173.453
13.7395     45.653   170.036
13.9394     46.458   166.711
14.1421     47.098   163.742
14.3478     47.674   161.203
14.5565     48.258   159.152
14.7683     48.843   157.627
14.9831     49.359   156.523
15.2010     49.882   155.832
15.4221     50.413   155.299
15.6464     50.893   154.981
15.8740     51.398   154.882
16.1049     51.910   155.137
16.3392     52.378   155.890
16.5768     52.884   157.082
16.8179     53.518   158.526
17.0626     54.300   159.846
17.3107     55.094   160.683
17.5625     55.925   160.721
17.8180     56.790   159.564
18.0771     57.516   157.637
18.3401     58.180   155.195
18.6068     58.628   152.541
18.8775     58.952   150.137
19.1521     59.282   148.212
19.4306     59.544   146.874
19.7133     59.941   146.093
20.0000     60.499   145.317
20.2909     61.098   144.038
20.5860     61.806   142.036
20.8855     62.471   139.181
21.1893     63.078   135.523
21.4975     63.694   131.393
21.8102     64.096   127.019
22.1274     64.552   122.563
22.4492     64.938   118.116
22.7758     65.320   113.800
23.1071     65.542   109.861
23.4432     65.676   106.672
23.7841     65.726   104.943
24.1301     65.951   105.200
24.4811     66.276   106.882
24.8372     67.144   108.933
25.1984     68.155   109.863
25.5649     69.308   108.724
25.9368     70.423   105.683
26.3141     71.202   101.458
26.6968     71.735    96.961
27.0851     72.033    93.191
27.4791     72.191    90.888
27.8788     72.351    90.684
28.2843     72.654    91.753
28.6957     73.391    92.893
29.1131     74.226    92.654
29.5365     75.072    90.563
29.9661     75.845    86.774
30.4020     76.321    82.191
30.8442     76.637    77.889
31.2929     76.799    74.539
31.7480     76.898    72.276
32.2098     77.167    70.640
32.6783     77.542    68.810
33.1536     77.922    66.496
33.6359     78.308    63.910
34.1251     78.699    61.395
34.6215     79.048    59.047
35.1250     79.449    56.652
35.6359     79.808    53.967
36.1543     80.123    51.054
36.6802     80.371    48.182
37.2137     80.585    45.640
37.7550     80.801    43.491
38.3041     81.021    41.600
38.8613     81.244    39.671
39.4265     81.470    37.629
40.0000     81.699    35.673
40.5818     81.832    34.053
41.1721     82.068    32.577
41.7710     82.407    30.868
42.3785     82.650    28.786
42.9949     82.799    26.791
43.6203     83.147    25.099
44.2548     83.401    23.294
44.8985     83.658    20.940
45.5515     83.820    18.422
46.2141     84.085    16.222
46.8863     84.254    14.340
47.5683     84.426    12.485
48.2602     84.599    10.730
48.9621     84.784     9.247
49.6743     84.969     7.898
50.3968     85.158     6.568
51.1299     85.351     5.256
51.8736     85.548     3.865
52.6281     85.850     2.290
53.3936     86.156     0.528
54.1702     86.367    -1.377
54.9581     86.482    -3.262
55.7575     86.702    -5.049
56.5685     86.899    -6.954
57.3914     86.999    -8.771
58.2261     87.099    -9.968
59.0730     87.299   -10.815
59.9323     87.499   -12.001
60.8040     87.699   -13.007
61.6884     87.974   -13.605
62.5857     88.333   -15.125
63.4960     88.597   -17.241
64.4196     88.767   -18.203
65.3566     89.142   -19.349
66.3073     89.399   -21.559
67.2717     89.599   -23.266
68.2502     89.699   -24.758
69.2429     89.899   -25.976
70.2501     90.199   -27.084
71.2719     90.499   -29.463
72.3086     90.622   -31.374
73.3603     90.843   -32.347
74.4274     91.170   -33.612
75.5099     91.503   -35.442
76.6083     91.742   -37.218
77.7226     91.988   -39.205
78.8531     92.099   -40.707
80.0000     92.399   -42.084
81.1636     92.599   -44.175
82.3442     92.799   -45.820
83.5419     92.999   -47.464
84.7570     93.202   -49.003
85.9899     93.495   -50.730
87.2406     93.795   -52.617
88.5096     94.003   -54.537
89.7970     94.318   -56.631
91.1031     94.599   -59.092
92.4282     94.819   -61.594
93.7726     95.079   -64.130
95.1366     95.282   -67.358
96.5204     95.359   -70.502
97.9243     95.482   -73.445
99.3486     95.499   -76.394
100.794     95.499   -78.687
102.260     95.499   -80.509
103.747     95.559   -82.151
105.256     95.699   -84.297
106.787     95.816   -86.888
108.340     95.949   -89.327
109.916     95.999   -91.774
111.515     96.099   -94.400
113.137     96.066   -96.986
114.783     95.999   -99.440
116.452     95.942  -101.875
118.146     95.899  -104.182
119.865     95.832  -106.266
121.608     95.799  -107.739
123.377     95.799  -109.504
125.171     95.785  -111.373
126.992     95.699  -113.203
128.839     95.574  -115.101
130.713     95.499  -116.949
132.615     95.449  -118.728
134.543     95.349  -120.641
136.500     95.270  -122.479
138.486     95.162  -124.106
140.500     94.966  -125.646
142.544     94.749  -126.814
144.617     94.562  -127.558
146.721     94.421  -128.129
148.855     94.299  -128.752
151.020     94.177  -129.395
153.217     94.053  -129.895
155.445     93.961  -130.297
157.706     93.857  -130.810
160.000     93.740  -131.487
162.327     93.620  -132.023
164.688     93.498  -131.965
167.084     93.392  -131.418
169.514     93.366  -131.116
171.980     93.360  -131.139
174.481     93.335  -131.252
177.019     93.261  -131.206
179.594     93.263  -130.812
182.206     93.341  -130.374
184.856     93.474  -130.390
187.545     93.575  -130.675
190.273     93.728  -130.925
193.041     93.907  -131.200
195.849     94.071  -131.811
198.697     94.216  -132.776
201.587     94.376  -133.768
204.520     94.571  -134.712
207.494     94.740  -135.760
210.512     94.894  -137.148
213.574     95.035  -138.644
216.681     95.155  -140.040
219.833     95.235  -141.459
223.030     95.338  -142.829
226.274     95.458  -144.153
229.565     95.578  -145.665
232.905     95.686  -147.480
236.292     95.788  -149.315
239.729     95.870  -151.115
243.216     95.943  -152.930
246.754     95.988  -154.755
250.343     95.997  -156.714
253.984     96.000  -158.603
257.678     95.945  -160.384
261.426     95.871  -162.395
265.229     95.804  -164.266
269.087     95.719  -165.876
273.001     95.612  -167.235
276.972     95.461  -168.385
281.000     95.291  -169.599
285.088     95.122  -170.602
289.234     94.940  -171.402
293.441     94.767  -172.013
297.709     94.602  -172.437
302.040     94.467  -172.694
306.433     94.352  -172.631
310.890     94.236  -172.390
315.412     94.148  -172.173
320.000     94.103  -171.902
324.655     94.086  -171.613
329.377     94.100  -171.338
334.168     94.129  -171.110
339.028     94.173  -171.040
343.959     94.233  -171.217
348.962     94.327  -171.405
354.038     94.392  -171.554
359.188     94.442  -171.938
364.412     94.497  -172.434
369.713     94.539  -172.886
375.090     94.572  -173.390
380.546     94.602  -173.832
386.081     94.635  -174.249
391.697     94.673  -174.509
397.394     94.716  -174.693
403.175     94.776  -174.787
409.039     94.849  -174.824
414.989     94.954  -174.958
421.025     95.082  -175.137
427.149     95.242  -175.539
433.362     95.426  -176.013
439.665     95.616  -176.762
446.060     95.801  -177.821
452.548     95.977  -179.143
459.131     96.138   179.230
465.809     96.280   177.371
472.584     96.385   175.447
479.458     96.427   173.430
486.432     96.436   171.182
493.507     96.416   169.004
500.686     96.333   166.999
507.968     96.195   165.151
515.357     96.019   163.435
522.853     95.826   161.988
530.458     95.609   160.857
538.174     95.388   159.992
546.002     95.185   159.381
553.943     94.992   158.999
562.001     94.816   158.668
570.175     94.658   158.421
578.469     94.509   158.191
586.883     94.373   157.888
595.419     94.254   157.655
604.080     94.135   157.544
612.866     94.013   157.591
621.780     93.883   157.810
630.824     93.790   158.087
640.000     93.737   158.603
649.309     93.728   159.050
658.753     93.793   159.405
668.335     93.897   159.711
678.056     93.993   159.663
687.919     94.091   159.029
697.925     94.189   158.038
708.077     94.279   156.942
718.376     94.323   156.076
728.825     94.308   155.273
739.426     94.274   154.526
750.181     94.294   153.967
761.093     94.328   153.873
772.163     94.365   153.656
783.394     94.440   153.064
794.789     94.536   152.136
806.349     94.605   151.019
818.078     94.561   149.745
829.977     94.428   148.338
842.050     94.244   147.335
854.298     94.039   147.305
866.724     93.837   148.528
879.330     93.720   150.179
892.120     93.887   152.049
905.097     94.237   153.793
918.262     94.702   154.191
931.618     95.221   153.163
945.169     95.696   151.069
958.917     96.036   148.221
972.864     96.242   144.821
987.015     96.331   141.260
1001.37     96.344   137.909
1015.94     96.277   134.948
1030.71     96.168   132.387
1045.71     96.029   130.036
1060.92     95.896   127.754
1076.35     95.745   125.759
1092.00     95.579   123.857
1107.89     95.423   122.145
1124.00     95.268   120.772
1140.35     95.132   119.454
1156.94     95.042   118.118
1173.77     94.943   116.880
1190.84     94.834   115.266
1208.16     94.735   113.768
1225.73     94.612   112.424
1243.56     94.506   111.227
1261.65     94.443   110.227
1280.00     94.417   109.110
1298.62     94.452   107.798
1317.51     94.485   106.508
1336.67     94.477   104.921
1356.11     94.491   103.141
1375.84     94.547   101.325
1395.85     94.606    99.317
1416.15     94.656    96.800
1436.75     94.668    94.004
1457.65     94.611    91.072
1478.85     94.542    88.277
1500.36     94.470    85.826
1522.19     94.446    83.461
1544.33     94.425    80.907
1566.79     94.408    77.834
1589.58     94.379    74.697
1612.70     94.270    71.630
1636.16     94.159    68.423
1659.95     94.051    65.484
1684.10     93.899    62.491
1708.60     93.721    59.522
1733.45     93.503    56.829
1758.66     93.277    54.528
1784.24     93.077    52.448
1810.19     92.919    50.417
1836.52     92.753    48.474
1863.24     92.572    46.916
1890.34     92.446    46.026
1917.83     92.469    45.578
1945.73     92.648    44.704
1974.03     92.915    43.011
2002.74     93.189    40.440
2031.87     93.479    37.022
2061.43     93.713    32.882
2091.41     93.810    28.067
2121.83     93.737    23.276
2152.69     93.530    19.244
2184.01     93.282    16.271
2215.77     93.117    14.190
2248.00     93.079    12.339
2280.70     93.114    10.045
2313.87     93.138     7.404
2347.53     93.134     4.830
2381.68     93.138     2.428
2416.32     93.182    -0.036
2451.46     93.258    -2.872
2487.12     93.299    -6.195
2523.30     93.239    -9.523
2560.00     93.132   -12.348
2597.24     93.029   -14.936
2635.01     92.893   -17.387
2673.34     92.753   -19.290
2712.23     92.689   -20.914
2751.68     92.686   -22.906
2791.70     92.673   -25.401
2832.31     92.560   -28.133
2873.50     92.323   -30.252
2915.30     92.116   -31.260
2957.70     92.044   -32.001
3000.72     92.021   -33.500
3044.37     91.903   -35.668
3088.65     91.623   -37.233
3133.58     91.337   -37.354
3179.16     91.196   -37.065
3225.40     91.084   -37.276
3272.31     90.925   -37.393
3319.91     90.795   -37.052
3368.20     90.746   -36.509
3417.19     90.753   -36.003
3466.89     90.789   -35.485
3517.32     90.829   -35.230
3568.48     90.834   -34.715
3620.39     90.922   -33.739
3673.05     91.123   -33.051
3726.47     91.369   -33.120
3780.67     91.520   -33.626
3835.67     91.626   -33.744
3891.46     91.747   -33.614
3948.06     91.942   -33.401
4005.49     92.171   -33.940
4063.75     92.293   -35.253
4122.86     92.281   -35.917
4182.82     92.372   -35.998
4243.66     92.491   -36.637
4305.39     92.545   -36.893
4368.01     92.738   -36.210
4431.55     93.106   -36.570
4496.01     93.335   -38.262
4561.40     93.384   -39.323
4627.75     93.508   -39.848
4695.06     93.639   -40.836
4763.35     93.725   -42.069
4832.64     93.783   -42.894
4902.93     93.921   -43.923
4974.24     93.994   -45.819
5046.60     93.992   -47.495
5120.00     93.987   -48.882
5194.47     94.011   -50.293
5270.03     93.976   -52.258
5346.68     93.827   -53.575
5424.45     93.755   -54.664
5503.35     93.554   -56.339
5583.40     93.279   -56.987
5664.61     93.095   -57.770
5747.01     92.781   -58.355
5830.60     92.545   -57.987
5915.41     92.362   -57.853
6001.45     92.159   -57.369
6088.74     91.946   -56.567
6177.30     91.821   -55.130
6267.15     91.706   -54.398
6358.31     91.519   -52.907
6450.80     91.440   -51.889
6544.62     91.186   -50.514
6639.82     91.158   -48.269
6736.40     91.089   -46.899
6834.38     91.130   -44.645
6933.79     91.232   -43.502
7034.64     91.316   -42.265
7136.96     91.444   -41.792
7240.77     91.431   -41.878
7346.09     91.382   -41.460
7452.94     91.260   -40.826
7561.35     91.199   -39.142
7671.33     91.216   -37.433
7782.91     91.337   -35.738
7896.12     91.399   -34.701
8010.97     91.469   -33.732
8127.49     91.405   -32.625
8245.71     91.422   -31.241
8365.65     91.393   -28.948
8487.33     91.587   -26.841
8610.78     91.830   -25.126
8736.03     92.105   -24.695
8863.09     92.281   -24.116
8992.01     92.485   -23.778
9122.80     92.678   -23.277
9255.50     92.844   -23.280
9390.12     92.988   -22.742
9526.70     93.123   -22.277
9665.27     93.311   -21.769
9805.86     93.470   -21.739
9948.49     93.560   -21.813
10093.2     93.581   -21.358
10240.0     93.667   -20.439
10388.9     93.862   -19.559
10540.1     94.086   -19.685
10693.4     94.233   -20.409
10848.9     94.364   -21.407
11006.7     94.457   -23.188
11166.8     94.306   -26.470
11329.2     93.309   -28.079
11494.0     92.548   -18.610
11661.2     93.458   -12.989
11830.8     94.160   -13.640
12002.9     94.664   -15.954
12177.5     94.842   -19.948
12354.6     94.642   -23.940
12534.3     94.277   -27.307
12716.6     93.529   -29.697
12901.6     92.520   -27.315
13089.2     92.031   -21.120
13279.6     92.089   -16.213
13472.8     92.262   -13.321
13668.8     92.492   -11.705
13867.6     92.760   -12.061
14069.3     92.719   -14.317
14273.9     92.244   -15.917
14481.5     91.520   -15.007
14692.2     90.769   -11.485
14905.9     90.160    -5.898
15122.7     89.831     0.845
15342.7     89.754     7.490
15565.8     89.910    13.291
15792.2     90.135    17.992
16021.9     90.384    22.553
16255.0     90.725    26.718
16491.4     91.056    30.702
16731.3     91.522    35.063
16974.7     92.282    37.914
17221.6     92.988    37.358
17472.1     93.316    35.359
17726.2     93.413    34.588
17984.0     93.474    35.361
18245.6     93.691    38.017
18511.0     94.409    41.215
18780.2     95.522    41.344
19053.4     96.599    37.270
19330.5     97.325    29.424
19611.7     97.259    19.457
19897.0     96.408    13.233
20186.4     96.408    13.232
20480.0     96.408    13.232
20777.9     96.408    13.232
21080.1     96.408    13.232
21386.7     96.408    13.232
21697.8     96.408    13.232
22013.4     96.408    13.232
22333.6     96.408    13.232
22658.4     96.408    13.232
22988.0     96.408    13.232
23322.4     96.408    13.232
23661.6     96.408    13.232
24005.8     96.408    13.232
24355.0     96.408    13.232
24709.2     96.408    13.232
25068.6     96.408    13.232
25433.2     96.408    13.232
25803.2     96.408    13.232
26178.5     96.408    13.232
26559.3     96.408    13.232
26945.6     96.408    13.232
27337.5     96.408    13.232
27735.2     96.408    13.232
28138.6     96.408    13.232
28547.9     96.408    13.232
28963.1     96.408    13.232
29384.4     96.408    13.232
29811.8     96.408    13.232
30245.4     96.408    13.232
30685.3     96.408    13.232
31131.7     96.408    13.232
31584.5     96.408    13.232
32043.9     96.408    13.232
32510.0     96.408    13.232
32982.8     96.408    13.232
33462.6     96.408    13.232
33949.3     96.408    13.232
34443.1     96.408    13.232
34944.1     96.408    13.232
35452.4     96.408    13.232
35968.0     96.408    13.232
36491.2     96.408    13.232
37022.0     96.408    13.232
37560.5     96.408    13.232
38106.8     96.408    13.232
38661.1     96.408    13.232
39223.4     96.408    13.232
39793.9     96.408    13.232
