Freq[Hz]     dBSPL  Phase[Deg]
5.00000     28.911   -60.666
5.07273     28.204   -56.788
5.14651     27.497   -52.908
5.22137     26.790   -49.029
5.29732     25.674   -47.821
5.37437     24.308   -48.243
5.45254     22.943   -48.664
5.53185     21.499   -42.145
5.61231     19.937   -25.207
5.69394     18.375    -8.267
5.77676     17.455     6.586
5.86079     17.891    17.043
5.94604     18.327    27.500
6.03252     19.311    35.412
6.12027     21.213    39.069
6.20929     23.115    42.726
6.29961     24.352    42.421
6.39124     25.041    38.841
6.48420     25.729    35.262
6.57851     25.992    30.798
6.67420     26.169    26.154
6.77128     26.244    21.344
6.86977     25.949    15.937
6.96969     25.654    10.530
7.07107     24.803     4.340
7.17392     23.713    -2.185
7.27827     22.119   -11.722
7.38413     19.157   -29.423
7.49154     16.195   -47.123
7.60050     13.991   -72.055
7.71105     11.851   -97.597
7.82321     13.485  -132.242
7.93701     17.141  -171.760
8.05245     20.041   159.972
8.16958     22.027   145.320
8.28841     23.784   132.725
8.40896     25.056   124.468
8.53128     26.134   116.441
8.65537     26.645   109.088
8.78126     26.969   101.706
8.90899     26.723    94.236
9.03857     26.351    86.679
9.17004     25.675    78.914
9.30342     24.646    70.715
9.43874     23.084    61.861
9.57603     20.148    49.495
9.71532     16.096    34.279
9.85663     14.671     1.464
10.0000     14.106   -37.114
10.1455     17.852   -96.606
10.2930     21.278  -143.392
10.4427     23.917  -158.960
10.5946     25.947  -170.517
10.7487     27.605  -179.632
10.9051     28.615   172.713
11.0637     29.448   165.418
11.2246     30.025   158.649
11.3879     30.334   152.914
11.5535     30.552   147.761
11.7216     30.681   143.441
11.8921     30.698   141.522
12.0650     30.796   140.830
12.2405     31.068   141.379
12.4186     31.683   142.665
12.5992     32.483   143.880
12.7825     33.463   144.675
12.9684     34.641   143.934
13.1570     35.837   142.289
13.3484     36.968   139.874
13.5426     38.005   136.820
13.7395     38.933   133.474
13.9394     39.800   130.219
14.1421     40.503   127.321
14.3478     41.141   124.855
14.5565     41.788   122.878
14.7683     42.435   121.428
14.9831     43.013   120.400
15.2010     43.599   119.785
15.4221     44.192   119.331
15.6464     44.734   119.093
15.8740     45.301   119.074
16.1049     45.876   119.410
16.3392     46.406   120.246
16.5768     46.975   121.523
16.8179     47.671   123.051
17.0626     48.516   124.458
17.3107     49.372   125.383
17.5625     50.266   125.510
17.8180     51.193   124.443
18.0771     51.981   122.608
18.3401     52.707   120.259
18.6068     53.218   117.699
18.8775     53.605   115.391
19.1521     53.997   113.563
19.4306     54.321   112.324
19.7133     54.780   111.642
20.0000     55.401   110.968
20.2909     56.062   109.791
20.5860     56.787   107.937
20.8855     57.473   105.198
21.1893     58.107   101.605
21.4975     58.756    97.506
21.8102     59.198    93.139
22.1274     59.704    88.678
22.4492     60.148    84.227
22.7758     60.596    79.924
23.1071     60.894    76.031
23.4432     61.111    72.940
23.7841     61.250    71.378
24.1301     61.564    71.880
24.4811     61.978    73.887
24.8372     62.929    76.343
25.1984     64.016    77.746
25.5649     65.232    77.135
25.9368     66.397    74.654
26.3141     67.211    70.994
26.6968     67.765    67.041
27.0851     68.070    63.768
27.4791     68.223    61.888
27.8788     68.370    62.013
28.2843     68.658    63.309
28.6957     69.380    64.571
29.1131     70.205    64.350
29.5365     71.051    62.185
29.9661     71.836    58.244
30.4020     72.342    53.458
30.8442     72.711    48.935
31.2929     72.948    45.396
31.7480     73.142    43.021
32.2098     73.523    41.393
32.6783     74.023    39.763
33.1536     74.531    37.852
33.6359     75.035    35.872
34.1251     75.525    34.164
34.6215     75.940    32.767
35.1250     76.375    31.392
35.6359     76.726    29.717
36.1543     76.998    27.730
36.6802     77.176    25.637
37.2137     77.297    23.672
37.7550     77.409    21.890
38.3041     77.523    20.122
38.8613     77.646    18.107
39.4265     77.789    15.768
40.0000     77.958    13.360
40.5818     78.060    11.176
41.1721     78.299     9.093
41.7710     78.673     6.802
42.3785     78.981     4.243
42.9949     79.213     1.924
43.6203     79.655     0.085
44.2548     80.001    -1.684
44.8985     80.339    -3.862
45.5515     80.564    -6.119
46.2141     80.876    -8.031
46.8863     81.077    -9.646
47.5683     81.272   -11.291
48.2602     81.466   -12.900
48.9621     81.675   -14.289
49.6743     81.892   -15.561
50.3968     82.122   -16.790
51.1299     82.360   -17.938
51.8736     82.602   -19.078
52.6281     82.938   -20.324
53.3936     83.263   -21.716
54.1702     83.474   -23.263
54.9581     83.575   -24.865
55.7575     83.772   -26.485
56.5685     83.947   -28.346
57.3914     84.036   -30.222
58.2261     84.141   -31.527
59.0730     84.366   -32.462
59.9323     84.603   -33.648
60.8040     84.843   -34.526
61.6884     85.149   -34.865
62.5857     85.519   -36.051
63.4960     85.768   -37.840
64.4196     85.901   -38.572
65.3566     86.227   -39.656
66.3073     86.438   -41.986
67.2717     86.608   -43.969
68.2502     86.704   -45.803
69.2429     86.925   -47.334
70.2501     87.262   -48.640
71.2719     87.602   -51.078
72.3086     87.754   -52.943
73.3603     87.988   -53.839
74.4274     88.313   -55.072
75.5099     88.640   -56.959
76.6083     88.878   -58.877
77.7226     89.136   -61.036
78.8531     89.269   -62.672
80.0000     89.595   -64.100
81.1636     89.813   -66.166
82.3442     90.016   -67.764
83.5419     90.205   -69.415
84.7570     90.392   -71.062
85.9899     90.673   -72.997
87.2406     90.975   -75.138
88.5096     91.196   -77.284
89.7970     91.528   -79.531
91.1031     91.817   -82.088
92.4282     92.031   -84.693
93.7726     92.273   -87.415
95.1366     92.459   -90.957
96.5204     92.530   -94.521
97.9243     92.665   -97.917
99.3486     92.711  -101.276
100.794     92.746  -103.892
102.260     92.779  -105.955
103.747     92.863  -107.785
105.256     93.016  -110.106
106.787     93.133  -112.902
108.340     93.255  -115.625
109.916     93.292  -118.484
111.515     93.389  -121.656
113.137     93.377  -124.850
114.783     93.357  -127.827
116.452     93.353  -130.588
118.146     93.342  -133.039
119.865     93.270  -135.247
121.608     93.202  -136.999
123.377     93.160  -139.261
125.171     93.111  -141.791
126.992     92.999  -144.394
128.839     92.862  -147.191
130.713     92.805  -150.010
132.615     92.807  -152.614
134.543     92.755  -155.030
136.500     92.675  -157.222
138.486     92.519  -159.335
140.500     92.274  -161.703
142.544     92.034  -163.752
144.617     91.806  -165.058
146.721     91.557  -166.256
148.855     91.287  -168.104
151.020     91.076  -170.305
153.217     90.907  -172.002
155.445     90.700  -173.276
157.706     90.398  -175.142
160.000     90.131  -178.101
162.327     90.017   179.348
164.688     89.929   178.681
167.084     89.715   179.279
169.514     89.390   179.428
171.980     89.019   178.469
174.481     88.700   177.074
177.019     88.396   176.002
179.594     88.171   175.711
182.206     87.972   175.802
184.856     87.831   175.542
187.545     87.720   175.409
190.273     87.633   176.000
193.041     87.511   176.778
195.849     87.369   176.954
198.697     87.255   176.727
201.587     87.221   176.614
204.520     87.280   176.693
207.494     87.352   176.956
210.512     87.377   177.060
213.574     87.392   176.494
216.681     87.502   175.665
219.833     87.628   175.371
223.030     87.695   175.204
226.274     87.809   174.249
229.565     88.041   173.300
232.905     88.191   172.614
236.292     88.254   171.238
239.729     88.384   169.424
243.216     88.520   167.956
246.754     88.587   166.285
250.343     88.648   164.450
253.984     88.634   162.819
257.678     88.545   160.573
261.426     88.539   158.228
265.229     88.452   156.543
269.087     88.285   154.344
273.001     88.194   152.213
276.972     88.066   150.813
281.000     87.871   149.402
285.088     87.672   148.243
289.234     87.424   147.470
293.441     87.161   146.730
297.709     86.930   146.325
302.040     86.695   146.247
306.433     86.495   146.261
310.890     86.356   146.795
315.412     86.212   147.594
320.000     86.131   148.072
324.655     86.156   148.766
329.377     86.182   149.563
334.168     86.238   149.899
339.028     86.371   149.790
343.959     86.562   149.721
348.962     86.707   149.529
354.038     86.848   148.902
359.188     86.968   148.069
364.412     87.086   146.792
369.713     87.200   145.662
375.090     87.251   144.399
380.546     87.303   142.960
386.081     87.346   141.556
391.697     87.400   140.359
397.394     87.395   139.326
403.175     87.427   138.045
409.039     87.480   137.249
414.989     87.506   136.197
421.025     87.590   134.986
427.149     87.698   133.752
433.362     87.822   132.327
439.665     87.952   130.534
446.060     88.081   128.458
452.548     88.176   126.025
459.131     88.257   123.224
465.809     88.271   120.139
472.584     88.228   116.740
479.458     88.115   113.227
486.432     87.934   109.524
493.507     87.669   105.907
500.686     87.298   102.504
507.968     86.830    99.606
515.357     86.241    97.172
522.853     85.594    95.311
530.458     84.916    94.285
538.174     84.275    94.297
546.002     83.798    95.531
553.943     83.386    98.021
562.001     83.103   100.420
570.175     83.009   102.440
578.469     83.032   103.762
586.883     83.081   104.259
595.419     83.101   103.725
604.080     83.091   102.748
612.866     82.968   101.795
621.780     82.736   101.010
630.824     82.426   100.759
640.000     82.080   101.476
649.309     81.802   102.494
658.753     81.689   104.609
668.335     81.740   106.346
678.056     82.057   108.003
687.919     82.445   109.115
697.925     82.828   109.121
708.077     83.200   107.959
718.376     83.531   106.329
728.825     83.776   104.228
739.426     84.016   102.034
750.181     84.177   100.184
761.093     84.326    98.010
772.163     84.499    95.839
783.394     84.708    93.322
794.789     84.948    90.377
806.349     85.178    87.069
818.078     85.340    83.216
829.977     85.434    78.817
842.050     85.442    73.956
854.298     85.356    68.685
866.724     85.195    63.206
879.330     84.910    57.438
892.120     84.490    51.261
905.097     83.914    44.826
918.262     83.124    38.250
931.618     82.051    31.862
945.169     80.625    26.660
958.917     78.799    24.697
972.864     76.542    29.186
987.015     74.611    41.768
1001.37     74.508    58.244
1015.94     75.947    68.357
1030.71     77.506    69.676
1045.71     78.527    65.857
1060.92     79.001    59.951
1076.35     78.973    54.194
1092.00     78.643    49.884
1107.89     78.238    47.805
1124.00     77.986    47.093
1140.35     78.042    46.377
1156.94     78.209    44.205
1173.77     78.271    40.185
1190.84     78.111    35.278
1208.16     77.659    31.021
1225.73     77.035    28.142
1243.56     76.423    26.932
1261.65     76.073    26.429
1280.00     75.891    25.515
1298.62     75.690    23.165
1317.51     75.374    20.422
1336.67     74.843    18.963
1356.11     74.245    19.108
1375.84     73.950    20.923
1395.85     73.937    23.105
1416.15     74.136    23.357
1436.75     74.462    22.253
1457.65     74.768    20.651
1478.85     75.027    18.449
1500.36     75.291    15.205
1522.19     75.541    10.899
1544.33     75.648     6.216
1566.79     75.539     1.263
1589.58     75.359    -3.255
1612.70     75.215    -6.650
1636.16     75.112    -9.639
1659.95     75.059   -13.129
1684.10     74.967   -16.704
1708.60     74.828   -19.666
1733.45     74.808   -21.848
1758.66     75.066   -24.441
1784.24     75.474   -28.961
1810.19     75.698   -35.838
1836.52     75.570   -43.994
1863.24     75.110   -51.469
1890.34     74.470   -56.797
1917.83     73.796   -60.445
1945.73     73.221   -63.511
1974.03     72.685   -66.221
2002.74     72.034   -68.501
2031.87     71.342   -68.932
2061.43     70.798   -66.790
2091.41     70.778   -63.858
2121.83     71.186   -62.640
2152.69     71.516   -63.809
2184.01     71.763   -65.326
2215.77     72.088   -66.827
2248.00     72.487   -69.742
2280.70     72.721   -73.634
2313.87     72.781   -77.490
2347.53     72.787   -80.646
2381.68     72.741   -83.272
2416.32     72.839   -85.638
2451.46     73.058   -88.625
2487.12     73.218   -92.753
2523.30     73.224   -97.038
2560.00     73.160  -101.343
2597.24     72.997  -105.749
2635.01     72.710  -109.924
2673.34     72.330  -113.658
2712.23     71.809  -116.133
2751.68     71.441  -117.064
2791.70     71.340  -118.588
2832.31     71.109  -121.885
2873.50     70.610  -124.671
2915.30     69.966  -125.447
2957.70     69.465  -123.477
3000.72     69.520  -122.230
3044.37     69.519  -124.001
3088.65     68.999  -124.692
3133.58     68.685  -121.714
3179.16     68.976  -119.236
3225.40     69.244  -119.973
3272.31     69.170  -119.992
3319.91     69.552  -119.336
3368.20     70.071  -122.286
3417.19     70.071  -126.783
3466.89     69.807  -129.273
3517.32     69.630  -130.618
3568.48     69.390  -133.025
3620.39     68.924  -134.364
3673.05     68.546  -133.941
3726.47     68.405  -132.423
3780.67     68.318  -131.656
3835.67     68.248  -129.246
3891.46     68.698  -126.832
3948.06     69.272  -127.959
4005.49     69.442  -131.113
4063.75     69.374  -133.785
4122.86     69.185  -135.969
4182.82     69.007  -135.989
4243.66     69.127  -136.883
4305.39     69.098  -138.276
4368.01     69.089  -138.173
4431.55     69.314  -139.596
4496.01     69.086  -140.560
4561.40     69.206  -140.437
4627.75     69.009  -140.817
4695.06     69.317  -139.230
4763.35     69.607  -142.068
4832.64     69.605  -141.974
4902.93     70.185  -143.408
4974.24     70.480  -149.880
5046.60     70.072  -154.478
5120.00     69.661  -156.487
5194.47     69.546  -157.530
5270.03     69.595  -159.323
5346.68     69.402  -162.299
5424.45     69.154  -165.878
5503.35     68.633  -168.575
5583.40     68.108  -168.562
5664.61     67.854  -169.285
5747.01     67.329  -170.859
5830.60     66.918  -169.606
5915.41     66.771  -169.186
6001.45     66.725  -169.231
6088.74     66.466  -170.858
6177.30     66.095  -170.797
6267.15     65.774  -170.745
6358.31     65.392  -169.097
6450.80     65.261  -168.523
6544.62     64.882  -166.759
6639.82     64.961  -165.639
6736.40     64.887  -166.074
6834.38     64.854  -165.189
6933.79     64.823  -165.518
7034.64     64.715  -165.244
7136.96     64.562  -165.385
7240.77     64.347  -164.555
7346.09     64.362  -162.779
7452.94     64.474  -162.766
7561.35     64.581  -162.659
7671.33     64.685  -162.721
7782.91     64.846  -163.187
7896.12     64.738  -163.377
8010.97     64.973  -163.855
8127.49     64.910  -165.666
8245.71     64.721  -167.223
8365.65     64.418  -165.381
8487.33     64.773  -164.085
8610.78     65.205  -165.988
8736.03     65.319  -170.622
8863.09     64.817  -173.896
8992.01     64.406  -173.572
9122.80     64.476  -171.963
9255.50     64.634  -172.781
9390.12     64.834  -174.449
9526.70     64.839  -178.681
9665.27     64.236   177.816
9805.86     63.322  -179.963
9948.49     63.259  -174.302
10093.2     64.018  -171.720
10240.0     64.708  -174.938
10388.9     64.856   179.671
10540.1     64.429   176.020
10693.4     63.991   175.365
10848.9     64.064   176.311
11006.7     64.609   174.220
11166.8     64.727   165.424
11329.2     63.323   158.132
11494.0     61.856   165.385
11661.2     62.460   171.502
11830.8     63.546   170.038
12002.9     64.378   160.792
12177.5     63.807   147.151
12354.6     61.792   141.685
12534.3     60.640   145.906
12716.6     60.475   143.734
12901.6     58.961   139.011
13089.2     57.114   146.158
13279.6     57.146   157.732
13472.8     57.848   158.319
13668.8     57.564   156.586
13867.6     57.271   158.080
14069.3     57.295   158.583
14273.9     56.988   158.373
14481.5     57.068   158.219
14692.2     56.973   154.850
14905.9     55.942   154.574
15122.7     55.295   158.988
15342.7     55.350   159.253
15565.8     55.029   158.398
15792.2     54.813   158.430
16021.9     54.254   156.294
16255.0     53.707   158.197
16491.4     53.847   156.722
16731.3     53.261   150.589
16974.7     51.442   150.296
17221.6     49.888   149.800
17472.1     47.162   161.339
17726.2     46.370  -168.680
17984.0     48.554  -159.872
18245.6     50.597  -161.440
18511.0     52.325  -170.389
18780.2     53.274  -176.429
19053.4     54.081   174.215
19330.5     53.794   160.204
19611.7     52.572   154.544
19897.0     51.564   151.069
20186.4     51.216   151.050
20480.0     50.868   151.031
20777.9     50.519   151.013
21080.1     50.171   150.994
21386.7     49.823   150.976
21697.8     49.474   150.957
22013.4     49.126   150.939
22333.6     48.778   150.920
22658.4     48.429   150.901
22988.0     48.081   150.883
23322.4     47.732   150.864
23661.6     47.384   150.846
24005.8     47.036   150.827
24355.0     46.687   150.809
24709.2     46.339   150.790
25068.6     45.991   150.771
25433.2     45.642   150.753
25803.2     45.294   150.734
26178.5     44.946   150.716
26559.3     44.597   150.697
26945.6     44.249   150.679
27337.5     43.901   150.660
27735.2     43.552   150.641
28138.6     43.204   150.623
28547.9     42.856   150.604
28963.1     42.507   150.586
29384.4     42.159   150.567
29811.8     41.811   150.549
30245.4     41.462   150.530
30685.3     41.114   150.511
31131.7     40.766   150.493
31584.5     40.417   150.474
32043.9     40.069   150.456
32510.0     39.721   150.437
32982.8     39.372   150.419
33462.6     39.024   150.400
33949.3     38.676   150.381
34443.1     38.327   150.363
34944.1     37.979   150.344
35452.4     37.630   150.326
35968.0     37.282   150.307
36491.2     36.934   150.289
37022.0     36.585   150.270
37560.5     36.237   150.251
38106.8     35.889   150.233
38661.1     35.540   150.214
39223.4     35.192   150.196
39793.9     34.844   150.177
