Freq[Hz]     dBSPL  Phase[Deg]
5.00000     35.668   -30.587
5.07273     34.920   -26.740
5.14651     34.173   -22.894
5.22137     33.426   -19.047
5.29732     32.270   -17.874
5.37437     30.864   -18.329
5.45254     29.458   -18.785
5.53185     27.974   -12.301
5.61231     26.372     4.601
5.69394     24.770    21.504
5.77676     23.811    36.321
5.86079     24.206    46.741
5.94604     24.602    57.160
6.03252     25.546    65.034
6.12027     27.408    68.652
6.20929     29.270    72.269
6.29961     30.467    71.924
6.39124     31.115    68.304
6.48420     31.763    64.684
6.57851     31.987    60.177
6.67420     32.124    55.491
6.77128     32.158    50.638
6.86977     31.823    45.187
6.96969     31.488    39.736
7.07107     30.597    33.501
7.17392     29.467    26.930
7.27827     27.832    17.347
7.38413     24.830    -0.401
7.49154     21.828   -18.148
7.60050     19.584   -43.128
7.71105     17.405   -68.720
7.82321     18.999  -103.414
7.93701     22.614  -142.983
8.05245     25.474  -171.302
8.16958     27.421   173.994
8.28841     29.137   161.346
8.40896     30.369   153.035
8.53128     31.407   144.954
8.65537     31.877   137.546
8.78126     32.161   130.108
8.90899     31.876   122.582
9.03857     31.463   114.967
9.17004     30.748   107.144
9.30342     29.679    98.886
9.43874     28.077    89.971
9.57603     25.100    77.545
9.71532     21.009    62.267
9.85663     19.543    29.390
10.0000     18.938    -9.252
10.1455     22.644   -68.809
10.2930     26.030  -115.661
10.4427     28.629  -131.294
10.5946     30.619  -142.919
10.7487     32.236  -152.102
10.9051     33.206  -159.826
11.0637     34.000  -167.192
11.2246     34.536  -174.032
11.3879     34.805  -179.840
11.5535     34.983   174.934
11.7216     35.072   170.540
11.8921     35.049   168.544
12.0650     35.107   167.776
12.2405     35.339   168.247
12.4186     35.914   169.454
12.5992     36.674   170.589
12.7825     37.614   171.302
12.9684     38.751   170.479
13.1570     39.907   168.751
13.3484     40.999   166.251
13.5426     41.995   163.110
13.7395     42.883   159.677
13.9394     43.710   156.333
14.1421     44.373   153.346
14.3478     44.971   150.788
14.5565     45.577   148.718
14.7683     46.184   147.174
14.9831     46.722   146.051
15.2010     47.268   145.340
15.4221     47.821   144.788
15.6464     48.323   144.450
15.8740     48.850   144.330
16.1049     49.385   144.564
16.3392     49.875   145.296
16.5768     50.404   146.467
16.8179     51.059   147.889
17.0626     51.864   149.187
17.3107     52.681   150.002
17.5625     53.534   150.017
17.8180     54.421   148.837
18.0771     55.169   146.887
18.3401     55.856   144.421
18.6068     56.326   141.743
18.8775     56.673   139.315
19.1521     57.025   137.365
19.4306     57.309   136.002
19.7133     57.728   135.195
20.0000     58.308   134.394
20.2909     58.929   133.088
20.5860     59.633   131.060
20.8855     60.295   128.152
21.1893     60.905   124.417
21.4975     61.528   120.196
21.8102     61.943   115.726
22.1274     62.417   111.174
22.4492     62.826   106.641
22.7758     63.234   102.256
23.1071     63.488    98.274
23.4432     63.656    95.074
23.7841     63.741    93.376
24.1301     64.001    93.703
24.4811     64.358    95.491
24.8372     65.252    97.680
25.1984     66.285    98.767
25.5649     67.452    97.794
25.9368     68.575    94.911
26.3141     69.354    90.819
26.6968     69.883    86.417
27.0851     70.173    82.692
27.4791     70.321    80.373
27.8788     70.475    80.089
28.2843     70.776    81.021
28.6957     71.519    81.974
29.1131     72.370    81.512
29.5365     73.246    79.181
29.9661     74.061    75.154
30.4020     74.594    70.362
30.8442     74.983    65.921
31.2929     75.231    62.527
31.7480     75.424    60.345
32.2098     75.791    58.936
32.6783     76.261    57.524
33.1536     76.723    55.799
33.6359     77.171    53.947
34.1251     77.594    52.279
34.6215     77.938    50.825
35.1250     78.301    49.298
35.6359     78.586    47.370
36.1543     78.801    45.055
36.6802     78.931    42.575
37.2137     79.017    40.188
37.7550     79.108    37.975
38.3041     79.212    35.791
38.8613     79.338    33.395
39.4265     79.492    30.732
40.0000     79.678    28.068
40.5818     79.799    25.704
41.1721     80.056    23.515
41.7710     80.442    21.178
42.3785     80.753    18.619
42.9949     80.981    16.315
43.6203     81.409    14.481
44.2548     81.733    12.688
44.8985     82.046    10.442
45.5515     82.246     8.071
46.2141     82.533     6.003
46.8863     82.715     4.197
47.5683     82.896     2.340
48.2602     83.082     0.511
48.9621     83.289    -1.090
49.6743     83.510    -2.555
50.3968     83.749    -3.948
51.1299     83.999    -5.219
51.8736     84.253    -6.441
52.6281     84.601    -7.725
53.3936     84.935    -9.116
54.1702     85.150   -10.630
54.9581     85.248   -12.174
55.7575     85.435   -13.726
56.5685     85.592   -15.528
57.3914     85.655   -17.374
58.2261     85.727   -18.708
59.0730     85.914   -19.759
59.9323     86.118   -21.155
60.8040     86.336   -22.332
61.6884     86.636   -23.028
62.5857     87.020   -24.573
63.4960     87.305   -26.658
64.4196     87.488   -27.567
65.3566     87.870   -28.665
66.3073     88.131   -30.851
67.2717     88.335   -32.555
68.2502     88.440   -34.056
69.2429     88.646   -35.281
70.2501     88.953   -36.387
71.2719     89.257   -38.758
72.3086     89.382   -40.668
73.3603     89.603   -41.660
74.4274     89.930   -42.965
75.5099     90.267   -44.847
76.6083     90.514   -46.672
77.7226     90.769   -48.687
78.8531     90.888   -50.190
80.0000     91.192   -51.548
81.1636     91.391   -53.620
82.3442     91.585   -55.268
83.5419     91.777   -56.951
84.7570     91.972   -58.568
85.9899     92.260   -60.403
87.2406     92.561   -62.411
88.5096     92.773   -64.443
89.7970     93.096   -66.623
91.1031     93.384   -69.134
92.4282     93.606   -71.659
93.7726     93.859   -74.221
95.1366     94.048   -77.523
96.5204     94.108   -80.822
97.9243     94.223   -83.995
99.3486     94.246   -87.195
100.794     94.265   -89.680
102.260     94.285   -91.588
103.747     94.352   -93.233
105.256     94.480   -95.397
106.787     94.572   -98.124
108.340     94.687  -100.845
109.916     94.739  -103.635
111.515     94.860  -106.536
113.137     94.851  -109.263
114.783     94.794  -111.768
116.452     94.728  -114.272
118.146     94.668  -116.740
119.865     94.587  -119.054
121.608     94.543  -120.773
123.377     94.531  -122.802
125.171     94.503  -125.000
126.992     94.416  -127.213
128.839     94.307  -129.447
130.713     94.249  -131.481
132.615     94.194  -133.347
134.543     94.062  -135.434
136.500     93.950  -137.599
138.486     93.826  -139.551
140.500     93.617  -141.320
142.544     93.357  -142.641
144.617     93.099  -143.648
146.721     92.887  -144.705
148.855     92.709  -145.972
151.020     92.552  -147.203
153.217     92.397  -148.202
155.445     92.276  -149.025
157.706     92.141  -149.823
160.000     91.969  -150.650
162.327     91.760  -151.356
164.688     91.554  -151.575
167.084     91.381  -151.273
169.514     91.281  -150.939
171.980     91.158  -150.770
174.481     90.999  -150.866
177.019     90.815  -150.976
179.594     90.744  -150.630
182.206     90.758  -149.910
184.856     90.809  -149.500
187.545     90.834  -149.425
190.273     90.925  -149.297
193.041     91.060  -149.150
195.849     91.196  -149.286
198.697     91.314  -149.653
201.587     91.431  -150.092
204.520     91.588  -150.741
207.494     91.759  -151.611
210.512     91.934  -152.718
213.574     92.091  -153.989
216.681     92.246  -155.268
219.833     92.378  -156.444
223.030     92.511  -157.495
226.274     92.648  -158.695
229.565     92.808  -160.176
232.905     92.954  -161.815
236.292     93.059  -163.524
239.729     93.146  -165.475
243.216     93.250  -167.467
246.754     93.320  -169.403
250.343     93.347  -171.541
253.984     93.366  -173.711
257.678     93.353  -175.843
261.426     93.335  -177.936
265.229     93.268  -179.797
269.087     93.162   178.309
273.001     93.052   176.525
276.972     92.915   174.972
281.000     92.757   173.427
285.088     92.593   172.065
289.234     92.419   170.972
293.441     92.235   170.138
297.709     92.046   169.455
302.040     91.874   168.943
306.433     91.712   168.587
310.890     91.575   168.357
315.412     91.476   168.271
320.000     91.408   168.335
324.655     91.362   168.367
329.377     91.357   168.360
334.168     91.372   168.327
339.028     91.411   168.125
343.959     91.463   167.813
348.962     91.520   167.312
354.038     91.581   166.729
359.188     91.619   165.958
364.412     91.671   164.993
369.713     91.693   164.093
375.090     91.709   163.012
380.546     91.716   162.022
386.081     91.710   160.994
391.697     91.705   160.042
397.394     91.692   159.177
403.175     91.680   158.358
409.039     91.686   157.583
414.989     91.691   156.822
421.025     91.716   155.843
427.149     91.772   154.834
433.362     91.832   153.679
439.665     91.898   152.183
446.060     91.970   150.490
452.548     92.018   148.610
459.131     92.032   146.528
465.809     91.991   144.113
472.584     91.909   141.585
479.458     91.765   139.044
486.432     91.554   136.472
493.507     91.259   134.102
500.686     90.866   131.890
507.968     90.412   130.084
515.357     89.917   128.876
522.853     89.378   128.550
530.458     88.813   128.956
538.174     88.313   130.144
546.002     87.921   131.950
553.943     87.653   134.191
562.001     87.518   136.373
570.175     87.504   138.171
578.469     87.559   139.529
586.883     87.616   140.236
595.419     87.639   140.445
604.080     87.625   140.236
612.866     87.576   140.116
621.780     87.466   140.277
630.824     87.341   140.685
640.000     87.272   141.532
649.309     87.259   142.815
658.753     87.322   144.056
668.335     87.503   145.048
678.056     87.748   145.704
687.919     87.992   145.723
697.925     88.229   144.982
708.077     88.449   143.913
718.376     88.594   142.788
728.825     88.675   141.622
739.426     88.720   140.562
750.181     88.767   139.804
761.093     88.838   139.389
772.163     88.949   139.184
783.394     89.128   138.952
794.789     89.373   138.527
806.349     89.657   137.695
818.078     89.967   136.303
829.977     90.289   134.320
842.050     90.592   131.773
854.298     90.856   128.468
866.724     91.058   124.572
879.330     91.159   119.879
892.120     91.142   114.579
905.097     90.944   108.970
918.262     90.534   103.277
931.618     89.859    98.042
945.169     88.940    93.989
958.917     87.818    92.465
972.864     86.646    94.469
987.015     85.817    99.915
1001.37     85.677   106.792
1015.94     86.182   111.361
1030.71     86.908   112.333
1045.71     87.522   110.398
1060.92     87.851   106.865
1076.35     87.924   103.058
1092.00     87.805    99.985
1107.89     87.624    97.772
1124.00     87.504    96.164
1140.35     87.512    94.489
1156.94     87.561    92.196
1173.77     87.560    89.222
1190.84     87.421    85.884
1208.16     87.166    82.722
1225.73     86.852    80.137
1243.56     86.572    78.167
1261.65     86.340    76.462
1280.00     86.138    74.402
1298.62     85.914    72.019
1317.51     85.622    69.625
1336.67     85.272    67.693
1356.11     84.946    66.334
1375.84     84.668    65.456
1395.85     84.429    64.410
1416.15     84.214    63.325
1436.75     83.983    62.693
1457.65     83.807    62.539
1478.85     83.798    62.824
1500.36     83.963    62.639
1522.19     84.236    61.397
1544.33     84.471    59.127
1566.79     84.624    56.163
1589.58     84.726    53.168
1612.70     84.819    50.243
1636.16     84.929    47.034
1659.95     84.999    43.352
1684.10     84.945    39.531
1708.60     84.786    36.226
1733.45     84.666    33.987
1758.66     84.749    32.252
1784.24     85.036    29.474
1810.19     85.332    24.812
1836.52     85.418    18.730
1863.24     85.214    12.489
1890.34     84.796     7.178
1917.83     84.281     3.235
1945.73     83.765     0.345
1974.03     83.295    -1.892
2002.74     82.853    -3.554
2031.87     82.414    -4.636
2061.43     81.993    -4.850
2091.41     81.700    -3.819
2121.83     81.653    -1.867
2152.69     81.883    -0.281
2184.01     82.347    -0.069
2215.77     82.894    -1.680
2248.00     83.312    -5.248
2280.70     83.479    -9.642
2313.87     83.400   -13.638
2347.53     83.193   -16.598
2381.68     82.961   -18.298
2416.32     82.837   -18.988
2451.46     82.887   -19.692
2487.12     83.008   -20.872
2523.30     83.136   -22.187
2560.00     83.308   -23.951
2597.24     83.447   -26.526
2635.01     83.482   -29.185
2673.34     83.484   -31.552
2712.23     83.523   -33.928
2751.68     83.592   -36.955
2791.70     83.536   -41.105
2832.31     83.163   -44.894
2873.50     82.667   -46.795
2915.30     82.303   -47.902
2957.70     81.924   -49.027
3000.72     81.492   -49.361
3044.37     81.047   -49.132
3088.65     80.616   -48.023
3133.58     80.262   -45.493
3179.16     80.149   -41.889
3225.40     80.309   -38.969
3272.31     80.525   -37.274
3319.91     80.816   -36.045
3368.20     81.147   -35.641
3417.19     81.529   -35.938
3466.89     81.873   -37.580
3517.32     81.917   -39.904
3568.48     81.798   -40.944
3620.39     81.804   -41.235
3673.05     81.837   -42.175
3726.47     81.771   -42.792
3780.67     81.753   -43.170
3835.67     81.605   -43.825
3891.46     81.380   -43.294
3948.06     81.227   -41.603
4005.49     81.256   -39.660
4063.75     81.367   -38.117
4122.86     81.559   -36.585
4182.82     81.908   -35.482
4243.66     82.356   -35.904
4305.39     82.710   -37.462
4368.01     82.874   -39.257
4431.55     82.987   -40.668
4496.01     82.991   -42.566
4561.40     82.779   -43.377
4627.75     82.685   -42.190
4695.06     82.813   -42.069
4763.35     82.763   -42.252
4832.64     82.798   -41.163
4902.93     83.080   -40.805
4974.24     83.344   -42.099
5046.60     83.445   -44.384
5120.00     83.367   -45.813
5194.47     83.420   -46.529
5270.03     83.432   -48.758
5346.68     83.216   -50.486
5424.45     82.972   -51.591
5503.35     82.618   -51.719
5583.40     82.483   -50.963
5664.61     82.430   -52.232
5747.01     82.000   -53.135
5830.60     81.654   -52.112
5915.41     81.398   -50.972
6001.45     81.229   -49.202
6088.74     81.141   -47.702
6177.30     81.107   -46.390
6267.15     80.974   -46.020
6358.31     80.729   -44.202
6450.80     80.616   -42.709
6544.62     80.391   -40.595
6639.82     80.421   -38.218
6736.40     80.395   -36.707
6834.38     80.484   -35.062
6933.79     80.487   -34.454
7034.64     80.403   -33.415
7136.96     80.280   -32.420
7240.77     80.093   -30.966
7346.09     80.000   -28.378
7452.94     79.998   -25.363
7561.35     80.298   -21.975
7671.33     80.717   -20.616
7782.91     81.070   -20.764
7896.12     81.115   -21.194
8010.97     81.147   -21.232
8127.49     80.998   -20.577
8245.71     80.966   -19.284
8365.65     80.995   -16.810
8487.33     81.337   -15.710
8610.78     81.574   -16.135
8736.03     81.666   -17.635
8863.09     81.456   -18.444
8992.01     81.232   -17.990
9122.80     81.086   -16.323
9255.50     81.060   -14.636
9390.12     81.223   -12.670
9526.70     81.484   -12.228
9665.27     81.566   -13.195
9805.86     81.305   -13.590
9948.49     80.919   -11.589
10093.2     80.831    -7.364
10240.0     81.217    -3.657
10388.9     81.826    -2.679
10540.1     82.325    -4.798
10693.4     82.398    -8.525
10848.9     81.990   -11.176
11006.7     81.524   -10.738
11166.8     81.462   -10.368
11329.2     80.976   -11.974
11494.0     80.364    -6.506
11661.2     80.867    -4.502
11830.8     80.781    -6.699
12002.9     80.539    -6.404
12177.5     80.561    -6.899
12354.6     80.442   -10.399
12534.3     79.799   -15.207
12716.6     78.289   -16.673
12901.6     76.566    -7.912
13089.2     76.570     5.650
13279.6     77.589    10.377
13472.8     77.890     8.757
13668.8     77.496     8.368
13867.6     77.238    11.150
14069.3     77.355    11.928
14273.9     77.057    10.362
14481.5     76.371    11.267
14692.2     75.752    14.497
14905.9     75.262    18.614
15122.7     74.921    23.248
15342.7     74.768    27.147
15565.8     74.589    28.649
15792.2     74.106    30.327
16021.9     73.686    33.725
16255.0     73.411    35.704
16491.4     72.968    36.371
16731.3     72.327    36.104
16974.7     71.035    34.233
17221.6     68.709    41.034
17472.1     67.180    58.072
17726.2     67.097    75.570
17984.0     68.325    90.695
18245.6     69.942    97.706
18511.0     71.491   100.774
18780.2     72.782    96.718
19053.4     72.857    90.451
19330.5     72.756    88.478
19611.7     72.519    84.126
19897.0     71.360    83.674
20186.4     71.070    86.035
20480.0     70.780    88.395
20777.9     70.489    90.756
21080.1     70.199    93.117
21386.7     69.909    95.478
21697.8     69.618    97.839
22013.4     69.328   100.200
22333.6     69.038   102.560
22658.4     68.747   104.921
22988.0     68.457   107.282
23322.4     68.166   109.643
23661.6     67.876   112.004
24005.8     67.586   114.365
24355.0     67.295   116.725
24709.2     67.005   119.086
25068.6     66.715   121.447
25433.2     66.424   123.808
25803.2     66.134   126.169
26178.5     65.843   128.530
26559.3     65.553   130.890
26945.6     65.263   133.251
27337.5     64.972   135.612
27735.2     64.682   137.973
28138.6     64.392   140.334
28547.9     64.101   142.695
28963.1     63.811   145.055
29384.4     63.521   147.416
29811.8     63.230   149.777
30245.4     62.940   152.138
30685.3     62.649   154.499
31131.7     62.359   156.860
31584.5     62.069   159.221
32043.9     61.778   161.581
32510.0     61.488   163.942
32982.8     61.198   166.303
33462.6     60.907   168.664
33949.3     60.617   171.025
34443.1     60.326   173.386
34944.1     60.036   175.746
35452.4     59.746   178.107
35968.0     59.455  -179.532
36491.2     59.165  -177.171
37022.0     58.875  -174.810
37560.5     58.584  -172.449
38106.8     58.294  -170.089
38661.1     58.003  -167.728
39223.4     57.713  -165.367
39793.9     57.423  -163.006
