"SPL Horizontal"																																																																							
"On-Axis"		"10°"		"-10°"		"20°"		"-20°"		"30°"		"-30°"		"40°"		"-40°"		"50°"		"-50°"		"60°"		"-60°"		"70°"		"-70°"		"80°"		"-80°"		"90°"		"-90°"		"100°"		"-100°"		"110°"		"-110°"		"120°"		"-120°"		"130°"		"-130°"		"140°"		"-140°"		"150°"		"-150°"		"160°"		"-160°"		"170°"		"-170°"		"180°"	
"Frequency / Hz"	"Sound Pressure Level / dB (re 20 µPa/V)  [2.83  V @ 1. m]"	"Frequency / Hz"	"Sound Pressure Level / dB (re 20 µPa/V)  [2.83  V @ 1. m]"	"Frequency / Hz"	"Sound Pressure Level / dB (re 20 µPa/V)  [2.83  V @ 1. m]"	"Frequency / Hz"	"Sound Pressure Level / dB (re 20 µPa/V)  [2.83  V @ 1. m]"	"Frequency / Hz"	"Sound Pressure Level / dB (re 20 µPa/V)  [2.83  V @ 1. m]"	"Frequency / Hz"	"Sound Pressure Level / dB (re 20 µPa/V)  [2.83  V @ 1. m]"	"Frequency / Hz"	"Sound Pressure Level / dB (re 20 µPa/V)  [2.83  V @ 1. m]"	"Frequency / Hz"	"Sound Pressure Level / dB (re 20 µPa/V)  [2.83  V @ 1. m]"	"Frequency / Hz"	"Sound Pressure Level / dB (re 20 µPa/V)  [2.83  V @ 1. m]"	"Frequency / Hz"	"Sound Pressure Level / dB (re 20 µPa/V)  [2.83  V @ 1. m]"	"Frequency / Hz"	"Sound Pressure Level / dB (re 20 µPa/V)  [2.83  V @ 1. m]"	"Frequency / Hz"	"Sound Pressure Level / dB (re 20 µPa/V)  [2.83  V @ 1. m]"	"Frequency / Hz"	"Sound Pressure Level / dB (re 20 µPa/V)  [2.83  V @ 1. m]"	"Frequency / Hz"	"Sound Pressure Level / dB (re 20 µPa/V)  [2.83  V @ 1. m]"	"Frequency / Hz"	"Sound Pressure Level / dB (re 20 µPa/V)  [2.83  V @ 1. m]"	"Frequency / Hz"	"Sound Pressure Level / dB (re 20 µPa/V)  [2.83  V @ 1. m]"	"Frequency / Hz"	"Sound Pressure Level / dB (re 20 µPa/V)  [2.83  V @ 1. m]"	"Frequency / Hz"	"Sound Pressure Level / dB (re 20 µPa/V)  [2.83  V @ 1. m]"	"Frequency / Hz"	"Sound Pressure Level / dB (re 20 µPa/V)  [2.83  V @ 1. m]"	"Frequency / Hz"	"Sound Pressure Level / dB (re 20 µPa/V)  [2.83  V @ 1. m]"	"Frequency / Hz"	"Sound Pressure Level / dB (re 20 µPa/V)  [2.83  V @ 1. m]"	"Frequency / Hz"	"Sound Pressure Level / dB (re 20 µPa/V)  [2.83  V @ 1. m]"	"Frequency / Hz"	"Sound Pressure Level / dB (re 20 µPa/V)  [2.83  V @ 1. m]"	"Frequency / Hz"	"Sound Pressure Level / dB (re 20 µPa/V)  [2.83  V @ 1. m]"	"Frequency / Hz"	"Sound Pressure Level / dB (re 20 µPa/V)  [2.83  V @ 1. m]"	"Frequency / Hz"	"Sound Pressure Level / dB (re 20 µPa/V)  [2.83  V @ 1. m]"	"Frequency / Hz"	"Sound Pressure Level / dB (re 20 µPa/V)  [2.83  V @ 1. m]"	"Frequency / Hz"	"Sound Pressure Level / dB (re 20 µPa/V)  [2.83  V @ 1. m]"	"Frequency / Hz"	"Sound Pressure Level / dB (re 20 µPa/V)  [2.83  V @ 1. m]"	"Frequency / Hz"	"Sound Pressure Level / dB (re 20 µPa/V)  [2.83  V @ 1. m]"	"Frequency / Hz"	"Sound Pressure Level / dB (re 20 µPa/V)  [2.83  V @ 1. m]"	"Frequency / Hz"	"Sound Pressure Level / dB (re 20 µPa/V)  [2.83  V @ 1. m]"	"Frequency / Hz"	"Sound Pressure Level / dB (re 20 µPa/V)  [2.83  V @ 1. m]"	"Frequency / Hz"	"Sound Pressure Level / dB (re 20 µPa/V)  [2.83  V @ 1. m]"	"Frequency / Hz"	"Sound Pressure Level / dB (re 20 µPa/V)  [2.83  V @ 1. m]"	"Frequency / Hz"	"Sound Pressure Level / dB (re 20 µPa/V)  [2.83  V @ 1. m]"
20.5078	47.6083	20.5078	47.5632	20.5078	47.3559	20.5078	47.21	20.5078	46.8222	20.5078	46.546	20.5078	46.0573	20.5078	45.6161	20.5078	45.2294	20.5078	44.6397	20.5078	44.7689	20.5078	44.2212	20.5078	45.2763	20.5078	45.0718	20.5078	46.8335	20.5078	46.9951	20.5078	48.8805	20.5078	49.2234	20.5078	50.9301	20.5078	51.3187	20.5078	52.7826	20.5078	53.1573	20.5078	54.3893	20.5078	54.7295	20.5078	55.7521	20.5078	56.0519	20.5078	56.8841	20.5078	57.1407	20.5078	57.7961	20.5078	58.0056	20.5078	58.4925	20.5078	58.6491	20.5078	58.9722	20.5078	59.0695	20.5078	59.2308	20.5078	59.2638
21.9727	46.7425	21.9727	46.598	21.9727	46.6597	21.9727	46.2314	21.9727	46.3887	21.9727	45.7145	21.9727	46.0332	21.9727	45.2567	21.9727	45.8089	21.9727	45.2598	21.9727	46.043	21.9727	46.0978	21.9727	46.972	21.9727	47.6839	21.9727	48.4903	21.9727	49.5933	21.9727	50.2733	21.9727	51.4939	21.9727	52.0558	21.9727	53.2384	21.9727	53.7044	21.9727	54.7827	21.9727	55.1706	21.9727	56.1216	21.9727	56.4438	21.9727	57.2607	21.9727	57.5253	21.9727	58.2049	21.9727	58.4168	21.9727	58.9547	21.9727	59.1156	21.9727	59.5061	21.9727	59.6151	21.9727	59.8523	21.9727	59.9076	21.9727	59.9872
23.4375	52.0958	23.4375	52.0289	23.4375	52.0134	23.4375	51.8077	23.4375	51.8043	23.4375	51.4482	23.4375	51.515	23.4375	51.0035	23.4375	51.23	23.4375	50.5923	23.4375	51.0816	23.4375	50.4189	23.4375	51.2293	23.4375	50.711	23.4375	51.7808	23.4375	51.5506	23.4375	52.7128	23.4375	52.7928	23.4375	53.8895	23.4375	54.2025	23.4375	55.1547	23.4375	55.5996	23.4375	56.3918	23.4375	56.8849	23.4375	57.5302	23.4375	58.0118	23.4375	58.5295	23.4375	58.9597	23.4375	59.3654	23.4375	59.7184	23.4375	60.0208	23.4375	60.2811	23.4375	60.4833	23.4375	60.642	23.4375	60.7436	23.4375	60.797
24.9023	54.2334	24.9023	54.1713	24.9023	54.1497	24.9023	53.9621	24.9023	53.9309	24.9023	53.6165	24.9023	53.6014	24.9023	53.1664	24.9023	53.2095	24.9023	52.6837	24.9023	52.8441	24.9023	52.3021	24.9023	52.6439	24.9023	52.2126	24.9023	52.7683	24.9023	52.579	24.9023	53.3087	24.9023	53.4094	24.9023	54.2156	24.9023	54.5475	24.9023	55.3367	24.9023	55.7964	24.9023	56.5142	24.9023	57.0109	24.9023	57.6359	24.9023	58.1082	24.9023	58.6349	24.9023	59.0462	24.9023	59.4731	24.9023	59.8035	24.9023	60.1286	24.9023	60.3681	24.9023	60.588	24.9023	60.7325	24.9023	60.8437	24.9023	60.8919
26.3672	52.8169	26.3672	52.735	26.3672	52.74	26.3672	52.5009	26.3672	52.5148	26.3672	52.1445	26.3672	52.1743	26.3672	51.7371	26.3672	51.7906	26.3672	51.4172	26.3672	51.4971	26.3672	51.3902	26.3672	51.4879	26.3672	51.8411	26.3672	51.9364	26.3672	52.7862	26.3672	52.8606	26.3672	54.0579	26.3672	54.1055	26.3672	55.4449	26.3672	55.4697	26.3672	56.7953	26.3672	56.8041	26.3672	58.0256	26.3672	58.0241	26.3672	59.0948	26.3672	59.087	26.3672	59.9832	26.3672	59.9722	26.3672	60.6807	26.3672	60.6692	26.3672	61.1814	26.3672	61.1719	26.3672	61.4819	26.3672	61.4765	26.3672	61.5802
27.832	53.6455	27.832	53.67	27.832	53.4639	27.832	53.5459	27.832	53.1432	27.832	53.311	27.832	52.7405	27.832	53.0471	27.832	52.3762	27.832	52.897	27.832	52.2503	27.832	53.0491	27.832	52.5822	27.832	53.6451	27.832	53.4526	27.832	54.6694	27.832	54.7261	27.832	55.9643	27.832	56.176	27.832	57.3477	27.832	57.624	27.832	58.6887	27.832	58.9691	27.832	59.9123	27.832	60.1635	27.832	60.9789	27.832	61.1865	27.832	61.8684	27.832	62.0289	27.832	62.5704	27.832	62.6856	27.832	63.0794	27.832	63.1532	27.832	63.3925	27.832	63.4284	27.832	63.5087
29.2969	58.9486	29.2969	58.9388	29.2969	58.9207	29.2969	58.892	29.2969	58.87	29.2969	58.825	29.2969	58.8273	29.2969	58.7711	29.2969	58.8391	29.2969	58.7799	29.2969	58.9613	29.2969	58.9102	29.2969	59.2454	29.2969	59.2139	29.2969	59.7187	29.2969	59.7152	29.2969	60.3706	29.2969	60.3977	29.2969	61.1564	29.2969	61.2103	29.2969	62.0135	29.2969	62.0862	29.2969	62.879	29.2969	62.9612	29.2969	63.6999	29.2969	63.7826	29.2969	64.4354	29.2969	64.5111	29.2969	65.0556	29.2969	65.1188	29.2969	65.5395	29.2969	65.5866	29.2969	65.8728	29.2969	65.9016	29.2969	66.0464	29.2969	66.0562
30.7617	60.1557	30.7617	60.0724	30.7617	60.1911	30.7617	59.946	30.7617	60.1871	30.7617	59.7964	30.7617	60.1648	30.7617	59.6615	30.7617	60.1579	30.7617	59.598	30.7617	60.2113	30.7617	59.6746	30.7617	60.3741	30.7617	59.9517	30.7617	60.6868	30.7617	60.4537	30.7617	61.1658	30.7617	61.1539	30.7617	61.7941	30.7617	61.9854	30.7617	62.5268	30.7617	62.8688	30.7617	63.306	30.7617	63.7343	30.7617	64.0751	30.7617	64.5296	30.7617	64.7872	30.7617	65.2187	30.7617	65.4066	30.7617	65.7778	30.7617	65.9079	30.7617	66.1916	30.7617	66.273	30.7617	66.4505	30.7617	66.4896	30.7617	66.55
32.2266	61.1838	32.2266	61.1656	32.2266	61.1606	32.2266	61.1098	32.2266	61.1039	32.2266	61.0332	32.2266	61.0335	32.2266	60.9661	32.2266	60.9823	32.2266	60.9525	32.2266	60.9936	32.2266	61.0442	32.2266	61.1162	32.2266	61.2882	32.2266	61.3903	32.2266	61.7083	32.2266	61.8332	32.2266	62.2933	32.2266	62.4293	32.2266	62.9999	32.2266	63.1351	32.2266	63.7686	32.2266	63.893	32.2266	64.5394	32.2266	64.6466	32.2266	65.2615	32.2266	65.3484	32.2266	65.8961	32.2266	65.9621	32.2266	66.4151	32.2266	66.4615	32.2266	66.7995	32.2266	66.8285	32.2266	67.037	32.2266	67.0509	32.2266	67.1214
33.6914	63.4138	33.6914	63.4225	33.6914	63.3756	33.6914	63.4045	33.6914	63.3139	33.6914	63.3718	33.6914	63.2438	33.6914	63.3451	33.6914	63.19	33.6914	63.354	33.6914	63.1858	33.6914	63.4328	33.6914	63.2688	33.6914	63.6149	33.6914	63.4727	33.6914	63.9218	33.6914	63.8159	33.6914	64.3555	33.6914	64.293	33.6914	64.8952	33.6914	64.8748	33.6914	65.5031	33.6914	65.5163	33.6914	66.1338	33.6914	66.1688	33.6914	66.7426	33.6914	66.7876	33.6914	67.2912	33.6914	67.3364	33.6914	67.7489	33.6914	67.7873	33.6914	68.093	33.6914	68.1205	33.6914	68.3084	33.6914	68.3226	33.6914	68.3859
35.1562	64.5481	35.1562	64.5406	35.1562	64.5295	35.1562	64.5094	35.1562	64.4906	35.1562	64.4653	35.1562	64.4459	35.1562	64.4277	35.1562	64.4177	35.1562	64.4242	35.1562	64.4357	35.1562	64.488	35.1562	64.5324	35.1562	64.6514	35.1562	64.7363	35.1562	64.9366	35.1562	65.0625	35.1562	65.3471	35.1562	65.5067	35.1562	65.8641	35.1562	66.0443	35.1562	66.4515	35.1562	66.637	35.1562	67.0649	35.1562	67.2418	35.1562	67.6603	35.1562	67.8178	35.1562	68.1992	35.1562	68.3301	35.1562	68.6514	35.1562	68.7515	35.1562	68.9941	35.1562	69.0614	35.1562	69.2124	35.1562	69.2461	35.1562	69.2973
36.6211	65.8176	36.6211	65.8136	36.6211	65.8055	36.6211	65.7961	36.6211	65.7822	36.6211	65.7749	36.6211	65.7596	36.6211	65.7669	36.6211	65.7568	36.6211	65.7956	36.6211	65.7986	36.6211	65.8877	36.6211	65.9117	36.6211	66.0685	36.6211	66.1195	36.6211	66.3543	36.6211	66.4348	36.6211	66.7468	36.6211	66.8544	36.6211	67.2305	36.6211	67.3581	36.6211	67.7755	36.6211	67.9135	36.6211	68.3444	36.6211	68.482	36.6211	68.8985	36.6211	69.026	36.6211	69.4026	36.6211	69.5122	36.6211	69.8276	36.6211	69.9136	36.6211	70.1511	36.6211	70.21	36.6211	70.3573	36.6211	70.3872	36.6211	70.4371
38.0859	67.4143	38.0859	67.4149	38.0859	67.4011	38.0859	67.404	38.0859	67.3799	38.0859	67.3883	38.0859	67.3606	38.0859	67.3801	38.0859	67.3578	38.0859	67.3972	38.0859	67.3903	38.0859	67.4609	38.0859	67.4785	38.0859	67.5925	38.0859	67.6409	38.0859	67.8083	38.0859	67.889	38.0859	68.1141	38.0859	68.2232	38.0859	68.502	38.0859	68.631	38.0859	68.9509	38.0859	69.0891	38.0859	69.4307	38.0859	69.567	38.0859	69.9075	38.0859	70.0324	38.0859	70.3485	38.0859	70.4546	38.0859	70.725	38.0859	70.8075	38.0859	71.0143	38.0859	71.0703	38.0859	71.2	38.0859	71.2283	38.0859	71.2724
39.5508	68.6743	39.5508	68.6711	39.5508	68.6685	39.5508	68.6607	39.5508	68.6572	39.5508	68.6498	39.5508	68.649	39.5508	68.65	39.5508	68.6567	39.5508	68.6774	39.5508	68.6971	39.5508	68.7502	39.5508	68.7882	39.5508	68.8865	39.5508	68.9463	39.5508	69.0994	39.5508	69.1818	39.5508	69.3934	39.5508	69.4957	39.5508	69.7613	39.5508	69.8779	39.5508	70.1852	39.5508	70.3083	39.5508	70.6385	39.5508	70.7596	39.5508	71.0905	39.5508	71.2018	39.5508	71.5103	39.5508	71.6054	39.5508	71.8703	39.5508	71.9445	39.5508	72.1477	39.5508	72.1983	39.5508	72.3259	39.5508	72.3515	39.5508	72.395
41.0156	69.8448	41.0156	69.8436	41.0156	69.8396	41.0156	69.8374	41.0156	69.8309	41.0156	69.8322	41.0156	69.8259	41.0156	69.8381	41.0156	69.8362	41.0156	69.869	41.0156	69.8764	41.0156	69.9408	41.0156	69.9626	41.0156	70.0692	41.0156	70.1098	41.0156	70.2663	41.0156	70.328	41.0156	70.5371	41.0156	70.6189	41.0156	70.8763	41.0156	70.9743	41.0156	71.2686	41.0156	71.3762	41.0156	71.6902	41.0156	71.7997	41.0156	72.1129	41.0156	72.2164	41.0156	72.5074	41.0156	72.5981	41.0156	72.8472	41.0156	72.9196	41.0156	73.1102	41.0156	73.1604	41.0156	73.2799	41.0156	73.3056	41.0156	73.3463
42.4805	71.0683	42.4805	71.066	42.4805	71.0684	42.4805	71.0626	42.4805	71.0686	42.4805	71.0633	42.4805	71.0751	42.4805	71.0765	42.4805	71.0973	42.4805	71.1139	42.4805	71.1471	42.4805	71.1887	42.4805	71.2374	42.4805	71.3138	42.4805	71.3798	42.4805	71.4992	42.4805	71.5822	42.4805	71.7486	42.4805	71.8461	42.4805	72.0575	42.4805	72.1648	42.4805	72.4128	42.4805	72.524	42.4805	72.7942	42.4805	72.9027	42.4805	73.1772	42.4805	73.2768	42.4805	73.5359	42.4805	73.6213	42.4805	73.8459	42.4805	73.9131	42.4805	74.0866	42.4805	74.1327	42.4805	74.2423	42.4805	74.2657	42.4805	74.3032
43.9453	72.1063	43.9453	72.1065	43.9453	72.1067	43.9453	72.1082	43.9453	72.1098	43.9453	72.1157	43.9453	72.121	43.9453	72.1363	43.9453	72.1482	43.9453	72.1795	43.9453	72.2015	43.9453	72.2566	43.9453	72.2916	43.9453	72.3786	43.9453	72.4283	43.9453	72.5538	43.9453	72.6183	43.9453	72.7856	43.9453	72.8631	43.9453	73.0705	43.9453	73.1576	43.9453	73.3978	43.9453	73.4894	43.9453	73.7498	43.9453	73.8405	43.9453	74.1047	43.9453	74.189	43.9453	74.4386	43.9453	74.5118	43.9453	74.7285	43.9453	74.7866	43.9453	74.9543	43.9453	74.9944	43.9453	75.1005	43.9453	75.121	43.9453	75.1572
45.4102	72.9546	45.4102	72.9634	45.4102	72.9511	45.4102	72.9784	45.4102	72.9548	45.4102	73.003	45.4102	72.9697	45.4102	73.0427	45.4102	73.0021	45.4102	73.1048	45.4102	73.0599	45.4102	73.1976	45.4102	73.1517	45.4102	73.3287	45.4102	73.2849	45.4102	73.5038	45.4102	73.4649	45.4102	73.7245	45.4102	73.6926	45.4102	73.9876	45.4102	73.9638	45.4102	74.2838	45.4102	74.2683	45.4102	74.5988	45.4102	74.5909	45.4102	74.9143	45.4102	74.9126	45.4102	75.2102	45.4102	75.2126	45.4102	75.4663	45.4102	75.4706	45.4102	75.6645	45.4102	75.6686	45.4102	75.7902	45.4102	75.7926	45.4102	75.8341
46.875	74.2157	46.875	74.2252	46.875	74.2091	46.875	74.2382	46.875	74.2071	46.875	74.2571	46.875	74.2135	46.875	74.2865	46.875	74.2339	46.875	74.3327	46.875	74.2755	46.875	74.4031	46.875	74.346	46.875	74.505	46.875	74.453	46.875	74.6448	46.875	74.6022	46.875	74.8258	46.875	74.7959	46.875	75.0471	46.875	75.0316	46.875	75.3027	46.875	75.3014	46.875	75.5807	46.875	75.5917	46.875	75.8652	46.875	75.8847	46.875	76.137	46.875	76.1605	46.875	76.376	46.875	76.3988	46.875	76.5638	46.875	76.5816	46.875	76.6853	46.875	76.695	46.875	76.7304
48.3398	74.8957	48.3398	74.9016	48.3398	74.8965	48.3398	74.9147	48.3398	74.9053	48.3398	74.9373	48.3398	74.925	48.3398	74.9733	48.3398	74.9604	48.3398	75.0281	48.3398	75.0171	48.3398	75.1077	48.3398	75.1016	48.3398	75.218	48.3398	75.2197	48.3398	75.364	48.3398	75.3757	48.3398	75.5481	48.3398	75.571	48.3398	75.7687	48.3398	75.8028	48.3398	76.02	48.3398	76.0635	48.3398	76.2911	48.3398	76.3407	48.3398	76.5669	48.3398	76.6185	48.3398	76.8298	48.3398	76.8785	48.3398	77.061	48.3398	77.1022	48.3398	77.2431	48.3398	77.273	48.3398	77.362	48.3398	77.3777	48.3398	77.4081
51.2695	76.3148	51.2695	76.3223	51.2695	76.3171	51.2695	76.3399	51.2695	76.33	51.2695	76.369	51.2695	76.3553	51.2695	76.4119	51.2695	76.3959	51.2695	76.4717	51.2695	76.4555	51.2695	76.5519	51.2695	76.5378	51.2695	76.6561	51.2695	76.6465	51.2695	76.787	51.2695	76.7841	51.2695	76.946	51.2695	76.9513	51.2695	77.1318	51.2695	77.1457	51.2695	77.3402	51.2695	77.3618	51.2695	77.5631	51.2695	77.5904	51.2695	77.7894	51.2695	77.8194	51.2695	78.005	51.2695	78.0345	51.2695	78.195	51.2695	78.2206	51.2695	78.3448	51.2695	78.3638	51.2695	78.4424	51.2695	78.4524	51.2695	78.4794
52.7344	76.909	52.7344	76.9165	52.7344	76.9125	52.7344	76.9353	52.7344	76.9276	52.7344	76.9663	52.7344	76.9558	52.7344	77.0114	52.7344	76.999	52.7344	77.0726	52.7344	77.06	52.7344	77.1526	52.7344	77.1417	52.7344	77.2541	52.7344	77.2467	52.7344	77.379	52.7344	77.377	52.7344	77.5283	52.7344	77.5328	52.7344	77.7008	52.7344	77.7122	52.7344	77.8927	52.7344	77.9104	52.7344	78.0971	52.7344	78.1196	52.7344	78.3043	52.7344	78.3292	52.7344	78.5019	52.7344	78.5265	52.7344	78.6762	52.7344	78.6977	52.7344	78.8139	52.7344	78.8299	52.7344	78.9036	52.7344	78.9121	52.7344	78.9373
54.1992	77.404	54.1992	77.4125	54.1992	77.4071	54.1992	77.4327	54.1992	77.4221	54.1992	77.4653	54.1992	77.45	54.1992	77.5115	54.1992	77.4923	54.1992	77.5727	54.1992	77.5508	54.1992	77.6508	54.1992	77.6277	54.1992	77.7476	54.1992	77.725	54.1992	77.8642	54.1992	77.844	54.1992	78.0013	54.1992	77.9851	54.1992	78.1577	54.1992	78.1467	54.1992	78.3301	54.1992	78.325	54.1992	78.5127	54.1992	78.5135	54.1992	78.6973	54.1992	78.7029	54.1992	78.8732	54.1992	78.8819	54.1992	79.0285	54.1992	79.038	54.1992	79.1512	54.1992	79.1592	54.1992	79.2307	54.1992	79.2353	54.1992	79.2598
55.6641	77.8032	55.6641	77.8145	55.6641	77.8045	55.6641	77.8384	55.6641	77.8187	55.6641	77.8752	55.6641	77.8464	55.6641	77.9255	55.6641	77.8887	55.6641	77.9902	55.6641	77.9468	55.6641	78.07	55.6641	78.0222	55.6641	78.1661	55.6641	78.1163	55.6641	78.2788	55.6641	78.2299	55.6641	78.4082	55.6641	78.3631	55.6641	78.5531	55.6641	78.5143	55.6641	78.7107	55.6641	78.6799	55.6641	78.8763	55.6641	78.8542	55.6641	79.0428	55.6641	79.029	55.6641	79.2011	55.6641	79.1943	55.6641	79.3408	55.6641	79.3387	55.6641	79.4509	55.6641	79.4513	55.6641	79.5219	55.6641	79.5226	55.6641	79.5467
58.5938	78.5252	58.5938	78.5351	58.5938	78.5285	58.5938	78.5579	58.5938	78.5452	58.5938	78.5933	58.5938	78.5758	58.5938	78.6409	58.5938	78.6203	58.5938	78.7006	58.5938	78.6789	58.5938	78.7723	58.5938	78.7519	58.5938	78.8561	58.5938	78.8391	58.5938	78.9521	58.5938	78.9402	58.5938	79.0601	58.5938	79.0546	58.5938	79.1792	58.5938	79.1804	58.5938	79.3077	58.5938	79.3151	58.5938	79.4419	58.5938	79.4545	58.5938	79.5767	58.5938	79.5927	58.5938	79.7052	58.5938	79.7223	58.5938	79.8191	58.5938	79.835	58.5938	79.9098	58.5938	79.922	58.5938	79.9694	58.5938	79.976	58.5938	79.9923
60.0586	78.7364	60.0586	78.7441	60.0586	78.7419	60.0586	78.7647	60.0586	78.7605	60.0586	78.798	60.0586	78.792	60.0586	78.8437	60.0586	78.8363	60.0586	78.9013	60.0586	78.893	60.0586	78.9703	60.0586	78.962	60.0586	79.0503	60.0586	79.043	60.0586	79.1408	60.0586	79.1356	60.0586	79.2411	60.0586	79.239	60.0586	79.3505	60.0586	79.3522	60.0586	79.4671	60.0586	79.4728	60.0586	79.5882	60.0586	79.5976	60.0586	79.7095	60.0586	79.7216	60.0586	79.8252	60.0586	79.8384	60.0586	79.928	60.0586	79.9404	60.0586	80.01	60.0586	80.0196	60.0586	80.0638	60.0586	80.0691	60.0586	80.0843
62.9883	79.1241	62.9883	79.1297	62.9883	79.1329	62.9883	79.1496	62.9883	79.1559	62.9883	79.183	62.9883	79.1925	62.9883	79.2287	62.9883	79.2417	62.9883	79.2855	62.9883	79.3022	62.9883	79.3519	62.9883	79.3728	62.9883	79.4266	62.9883	79.4523	62.9883	79.5084	62.9883	79.5395	62.9883	79.5965	62.9883	79.6332	62.9883	79.6901	62.9883	79.7321	62.9883	79.788	62.9883	79.8345	62.9883	79.8886	62.9883	79.9377	62.9883	79.9891	62.9883	80.038	62.9883	80.0853	62.9883	80.1307	62.9883	80.1717	62.9883	80.21	62.9883	80.2421	62.9883	80.2699	62.9883	80.2905	62.9883	80.3051	62.9883	80.3122
64.4531	79.2827	64.4531	79.2883	64.4531	79.2919	64.4531	79.3084	64.4531	79.3156	64.4531	79.3422	64.4531	79.3531	64.4531	79.3886	64.4531	79.403	64.4531	79.4459	64.4531	79.464	64.4531	79.5125	64.4531	79.5344	64.4531	79.5869	64.4531	79.6126	64.4531	79.6676	64.4531	79.6971	64.4531	79.7534	64.4531	79.7864	64.4531	79.8432	64.4531	79.8791	64.4531	79.9359	64.4531	79.9737	64.4531	80.0297	64.4531	80.0679	64.4531	80.1221	64.4531	80.1588	64.4531	80.2094	64.4531	80.2425	64.4531	80.2868	64.4531	80.3142	64.4531	80.3492	64.4531	80.3687	64.4531	80.3912	64.4531	80.4014	64.4531	80.4092
67.3828	79.5084	67.3828	79.5117	67.3828	79.5218	67.3828	79.5315	67.3828	79.5513	67.3828	79.5669	67.3828	79.5956	67.3828	79.6162	67.3828	79.6527	67.3828	79.6773	67.3828	79.7201	67.3828	79.7478	67.3828	79.7953	67.3828	79.8252	67.3828	79.8759	67.3828	79.9071	67.3828	79.9596	67.3828	79.9916	67.3828	80.0446	67.3828	80.0769	67.3828	80.1294	67.3828	80.1614	67.3828	80.2124	67.3828	80.2439	67.3828	80.2921	67.3828	80.3224	67.3828	80.3666	67.3828	80.3947	67.3828	80.4333	67.3828	80.4579	67.3828	80.4891	67.3828	80.5085	67.3828	80.5305	67.3828	80.543	67.3828	80.5544	67.3828	80.5588
68.8477	79.5813	68.8477	79.5825	68.8477	79.5981	68.8477	79.6014	68.8477	79.6319	68.8477	79.637	68.8477	79.6812	68.8477	79.6874	68.8477	79.7437	68.8477	79.7502	68.8477	79.8165	68.8477	79.8226	68.8477	79.8967	68.8477	79.9016	68.8477	79.9813	68.8477	79.9845	68.8477	80.0675	68.8477	80.0688	68.8477	80.153	68.8477	80.1525	68.8477	80.236	68.8477	80.2342	68.8477	80.3149	68.8477	80.3123	68.8477	80.3881	68.8477	80.3857	68.8477	80.4543	68.8477	80.4527	68.8477	80.5116	68.8477	80.511	68.8477	80.5579	68.8477	80.5582	68.8477	80.5908	68.8477	80.5913	68.8477	80.6081	68.8477	80.6084
71.7773	79.7894	71.7773	79.7894	71.7773	79.8072	71.7773	79.8069	71.7773	79.8419	71.7773	79.8408	71.7773	79.8916	71.7773	79.8888	71.7773	79.9537	71.7773	79.9484	71.7773	80.0248	71.7773	80.0161	71.7773	80.1013	71.7773	80.0887	71.7773	80.1798	71.7773	80.1628	71.7773	80.2568	71.7773	80.2357	71.7773	80.3297	71.7773	80.3051	71.7773	80.3965	71.7773	80.3695	71.7773	80.4558	71.7773	80.4279	71.7773	80.507	71.7773	80.48	71.7773	80.5498	71.7773	80.5254	71.7773	80.5842	71.7773	80.5639	71.7773	80.6098	71.7773	80.5947	71.7773	80.6263	71.7773	80.617	71.7773	80.6332	71.7773	80.63
74.707	80.0845	74.707	80.0831	74.707	80.1025	74.707	80.0981	74.707	80.1363	74.707	80.1282	74.707	80.1838	74.707	80.1713	74.707	80.2422	74.707	80.2244	74.707	80.3079	74.707	80.2839	74.707	80.3769	74.707	80.346	74.707	80.4452	74.707	80.4073	74.707	80.5093	74.707	80.4645	74.707	80.566	74.707	80.5154	74.707	80.6133	74.707	80.5587	74.707	80.6501	74.707	80.594	74.707	80.6764	74.707	80.6219	74.707	80.6934	74.707	80.6436	74.707	80.7025	74.707	80.6605	74.707	80.7057	74.707	80.6739	74.707	80.7045	74.707	80.6848	74.707	80.7002	74.707	80.6935
77.6367	80.3233	77.6367	80.325	77.6367	80.3376	77.6367	80.3421	77.6367	80.3668	77.6367	80.3732	77.6367	80.409	77.6367	80.4159	77.6367	80.4611	77.6367	80.4667	77.6367	80.5195	77.6367	80.5218	77.6367	80.58	77.6367	80.577	77.6367	80.6382	77.6367	80.6285	77.6367	80.6904	77.6367	80.673	77.6367	80.7332	77.6367	80.7083	77.6367	80.7647	77.6367	80.7331	77.6367	80.7841	77.6367	80.7477	77.6367	80.7922	77.6367	80.7536	77.6367	80.7908	77.6367	80.7534	77.6367	80.7829	77.6367	80.7498	77.6367	80.7717	77.6367	80.7458	77.6367	80.7602	77.6367	80.7437	77.6367	80.7509	77.6367	80.7452
79.1016	80.3764	79.1016	80.3821	79.1016	80.3863	79.1016	80.403	79.1016	80.411	79.1016	80.4372	79.1016	80.4485	79.1016	80.482	79.1016	80.4958	79.1016	80.5337	79.1016	80.549	79.1016	80.5882	79.1016	80.6038	79.1016	80.641	79.1016	80.6557	79.1016	80.6882	79.1016	80.701	79.1016	80.7264	79.1016	80.7364	79.1016	80.7533	79.1016	80.76	79.1016	80.768	79.1016	80.7713	79.1016	80.771	79.1016	80.7714	79.1016	80.7643	79.1016	80.7625	79.1016	80.7512	79.1016	80.748	79.1016	80.7353	79.1016	80.7317	79.1016	80.7203	79.1016	80.7173	79.1016	80.7094	79.1016	80.7078	79.1016	80.705
82.0312	80.4453	82.0312	80.4488	82.0312	80.4579	82.0312	80.4681	82.0312	80.4857	82.0312	80.5017	82.0312	80.5264	82.0312	80.5466	82.0312	80.5767	82.0312	80.5992	82.0312	80.6322	82.0312	80.6549	82.0312	80.6884	82.0312	80.709	82.0312	80.7406	82.0312	80.7569	82.0312	80.7844	82.0312	80.7949	82.0312	80.8164	82.0312	80.8201	82.0312	80.8347	82.0312	80.8312	82.0312	80.8386	82.0312	80.8287	82.0312	80.8294	82.0312	80.8146	82.0312	80.8101	82.0312	80.7925	82.0312	80.7847	82.0312	80.7671	82.0312	80.7584	82.0312	80.7434	82.0312	80.7361	82.0312	80.726	82.0312	80.7219	82.0312	80.7184
84.9609	80.6747	84.9609	80.6756	84.9609	80.6901	84.9609	80.6924	84.9609	80.7206	84.9609	80.7236	84.9609	80.7636	84.9609	80.7662	84.9609	80.8154	84.9609	80.8163	84.9609	80.8714	84.9609	80.8691	84.9609	80.9267	84.9609	80.92	84.9609	80.9762	84.9609	80.9642	84.9609	81.0157	84.9609	80.998	84.9609	81.0417	84.9609	81.0185	84.9609	81.0524	84.9609	81.0245	84.9609	81.0476	84.9609	81.0164	84.9609	81.029	84.9609	80.9963	84.9609	81.0001	84.9609	80.9683	84.9609	80.9657	84.9609	80.9373	84.9609	80.9317	84.9609	80.9091	84.9609	80.9034	84.9609	80.8888	84.9609	80.8853	84.9609	80.8803
87.8906	80.699	87.8906	80.7041	87.8906	80.7115	87.8906	80.7266	87.8906	80.7407	87.8906	80.7649	87.8906	80.7841	87.8906	80.8162	87.8906	80.8383	87.8906	80.8765	87.8906	80.8987	87.8906	80.9415	87.8906	80.9603	87.8906	81.0059	87.8906	81.0181	87.8906	81.0648	87.8906	81.0672	87.8906	81.1134	87.8906	81.1038	87.8906	81.1479	87.8906	81.1254	87.8906	81.1662	87.8906	81.1312	87.8906	81.1676	87.8906	81.1225	87.8906	81.1537	87.8906	81.1024	87.8906	81.128	87.8906	81.076	87.8906	81.0958	87.8906	81.0491	87.8906	81.0631	87.8906	81.0278	87.8906	81.0361	87.8906	81.0171	87.8906	81.0199
90.8203	81.1218	90.8203	81.1413	90.8203	81.1134	90.8203	81.171	90.8203	81.1156	90.8203	81.2088	90.8203	81.1266	90.8203	81.2514	90.8203	81.1435	90.8203	81.2946	90.8203	81.1628	90.8203	81.3337	90.8203	81.1803	90.8203	81.3635	90.8203	81.1917	90.8203	81.3793	90.8203	81.1933	90.8203	81.3771	90.8203	81.1821	90.8203	81.3544	90.8203	81.1563	90.8203	81.3105	90.8203	81.1162	90.8203	81.2475	90.8203	81.0639	90.8203	81.1696	90.8203	81.0039	90.8203	81.0838	90.8203	80.9426	90.8203	80.9987	90.8203	80.8876	90.8203	80.9234	90.8203	80.8469	90.8203	80.8663	90.8203	80.8273	90.8203	80.8334
95.2148	81.0985	95.2148	81.1047	95.2148	81.1069	95.2148	81.1253	95.2148	81.1291	95.2148	81.1585	95.2148	81.1629	95.2148	81.2015	95.2148	81.205	95.2148	81.2502	95.2148	81.2514	95.2148	81.2997	95.2148	81.2969	95.2148	81.3446	95.2148	81.3366	95.2148	81.3794	95.2148	81.3652	95.2148	81.3994	95.2148	81.3787	95.2148	81.4011	95.2148	81.3741	95.2148	81.3829	95.2148	81.3506	95.2148	81.3457	95.2148	81.31	95.2148	81.293	95.2148	81.2565	95.2148	81.2309	95.2148	81.1966	95.2148	81.1677	95.2148	81.1386	95.2148	81.1122	95.2148	81.0911	95.2148	81.0727	95.2148	81.0616	95.2148	81.055
98.1445	81.2471	98.1445	81.2592	98.1445	81.2486	98.1445	81.2848	98.1445	81.2631	98.1445	81.3222	98.1445	81.2885	98.1445	81.3685	98.1445	81.3217	98.1445	81.4198	98.1445	81.3586	98.1445	81.4711	98.1445	81.3946	98.1445	81.5167	98.1445	81.4243	98.1445	81.5509	98.1445	81.4429	98.1445	81.5683	98.1445	81.4461	98.1445	81.5648	98.1445	81.4311	98.1445	81.5383	98.1445	81.3973	98.1445	81.4892	98.1445	81.3465	98.1445	81.4209	98.1445	81.2838	98.1445	81.3403	98.1445	81.2166	98.1445	81.2564	98.1445	81.1544	98.1445	81.1799	98.1445	81.1071	98.1445	81.1209	98.1445	81.0829	98.1445	81.0873
101.074	81.217	101.074	81.2225	101.074	81.2269	101.074	81.2434	101.074	81.2508	101.074	81.2782	101.074	81.2863	101.074	81.324	101.074	81.3296	101.074	81.3767	101.074	81.376	101.074	81.431	101.074	81.4203	101.074	81.4809	101.074	81.457	101.074	81.5205	101.074	81.4809	101.074	81.5442	101.074	81.488	101.074	81.5477	101.074	81.4756	101.074	81.5286	101.074	81.4432	101.074	81.4874	101.074	81.3931	101.074	81.4273	101.074	81.3303	101.074	81.3547	101.074	81.2624	101.074	81.2783	101.074	81.199	101.074	81.2083	101.074	81.15	101.074	81.1546	101.074	81.1236	101.074	81.125
105.469	81.4086	105.469	81.4184	105.469	81.4132	105.469	81.4412	105.469	81.432	105.469	81.4749	105.469	81.4638	105.469	81.5161	105.469	81.5058	105.469	81.5608	105.469	81.5537	105.469	81.6039	105.469	81.6016	105.469	81.6399	105.469	81.6432	105.469	81.6633	105.469	81.6715	105.469	81.6691	105.469	81.6809	105.469	81.6535	105.469	81.6671	105.469	81.6151	105.469	81.6286	105.469	81.5549	105.469	81.567	105.469	81.4777	105.469	81.4876	105.469	81.3913	105.469	81.3987	105.469	81.3062	105.469	81.3114	105.469	81.2343	105.469	81.2374	105.469	81.1862	105.469	81.1877	105.469	81.1697
108.398	81.7197	108.398	81.7216	108.398	81.7268	108.398	81.7323	108.398	81.7421	108.398	81.7504	108.398	81.7636	108.398	81.7734	108.398	81.7888	108.398	81.7978	108.398	81.8139	108.398	81.8191	108.398	81.8347	108.398	81.8322	108.398	81.8465	108.398	81.832	108.398	81.8445	108.398	81.8135	108.398	81.8244	108.398	81.7734	108.398	81.7831	108.398	81.7103	108.398	81.7194	108.398	81.6259	108.398	81.635	108.398	81.5253	108.398	81.5348	108.398	81.4172	108.398	81.4272	108.398	81.3136	108.398	81.3232	108.398	81.2277	108.398	81.2355	108.398	81.1715	108.398	81.1759	108.398	81.1533
112.793	81.9498	112.793	81.9522	112.793	81.9563	112.793	81.9631	112.793	81.9718	112.793	81.9811	112.793	81.9954	112.793	82.0046	112.793	82.0254	112.793	82.0309	112.793	82.0587	112.793	82.056	112.793	82.091	112.793	82.0754	112.793	82.1168	112.793	82.0839	112.793	82.1301	112.793	82.0766	112.793	82.1253	112.793	82.0498	112.793	82.0979	112.793	82.0016	112.793	82.0459	112.793	81.9327	112.793	81.9701	112.793	81.8472	112.793	81.8754	112.793	81.7524	112.793	81.7708	112.793	81.6588	112.793	81.6684	112.793	81.5787	112.793	81.5823	112.793	81.5242	112.793	81.525	112.793	81.5049
117.188	82.0513	117.188	82.0628	117.188	82.0386	117.188	82.0724	117.188	82.0253	117.188	82.0792	117.188	82.0116	117.188	82.0819	117.188	81.9971	117.188	82.0791	117.188	81.9804	117.188	82.0689	117.188	81.9595	117.188	82.049	117.188	81.9314	117.188	82.0168	117.188	81.8929	117.188	81.9697	117.188	81.841	117.188	81.9059	117.188	81.7738	117.188	81.8248	117.188	81.6914	117.188	81.7278	117.188	81.5964	117.188	81.6191	117.188	81.4944	117.188	81.5056	117.188	81.3938	117.188	81.3964	117.188	81.3044	117.188	81.3024	117.188	81.2367	117.188	81.2337	117.188	81.1994	117.188	81.1981
120.117	82.2857	120.117	82.2787	120.117	82.2914	120.117	82.2703	120.117	82.2948	120.117	82.2598	120.117	82.2943	120.117	82.2457	120.117	82.2875	120.117	82.2255	120.117	82.2716	120.117	82.1961	120.117	82.2433	120.117	82.1541	120.117	82.1993	120.117	82.0959	120.117	82.1364	120.117	82.0187	120.117	82.0522	120.117	81.9204	120.117	81.9459	120.117	81.8015	120.117	81.8187	120.117	81.665	120.117	81.6747	120.117	81.5173	120.117	81.5212	120.117	81.3687	120.117	81.3687	120.117	81.2319	120.117	81.23	120.117	81.1207	120.117	81.1186	120.117	81.0477	120.117	81.0465	120.117	81.0219
124.512	82.3976	124.512	82.401	124.512	82.3975	124.512	82.4075	124.512	82.3998	124.512	82.415	124.512	82.4018	124.512	82.4202	124.512	82.3995	124.512	82.4182	124.512	82.3877	124.512	82.4033	124.512	82.3601	124.512	82.369	124.512	82.3102	124.512	82.3091	124.512	82.2322	124.512	82.218	124.512	82.1214	124.512	82.0925	124.512	81.976	124.512	81.932	124.512	81.7979	124.512	81.7403	124.512	81.5939	124.512	81.5262	124.512	81.3759	124.512	81.3037	124.512	81.1607	124.512	81.0913	124.512	80.9684	124.512	80.9103	124.512	80.8198	124.512	80.781	124.512	80.733	124.512	80.7194
128.906	82.0322	128.906	82.0351	128.906	82.0412	128.906	82.0499	128.906	82.061	128.906	82.0757	128.906	82.0896	128.906	82.1101	128.906	82.1236	128.906	82.1492	128.906	82.1587	128.906	82.1876	128.906	82.1891	128.906	82.2187	128.906	82.2082	128.906	82.2352	128.906	82.2093	128.906	82.2303	128.906	82.1867	128.906	82.1987	128.906	82.1366	128.906	82.1377	128.906	82.0588	128.906	82.0486	128.906	81.9568	128.906	81.9366	128.906	81.8387	128.906	81.8116	128.906	81.7162	128.906	81.6867	128.906	81.6033	128.906	81.5768	128.906	81.5149	128.906	81.4965	128.906	81.4634	128.906	81.4568
133.301	82.1365	133.301	82.1504	133.301	82.1303	133.301	82.1712	133.301	82.1321	133.301	82.1972	133.301	82.1414	133.301	82.2261	133.301	82.1565	133.301	82.2543	133.301	82.1746	133.301	82.2773	133.301	82.1912	133.301	82.2898	133.301	82.2007	133.301	82.2857	133.301	82.1967	133.301	82.2596	133.301	82.1729	133.301	82.2074	133.301	82.1245	133.301	82.1271	133.301	82.0492	133.301	82.0205	133.301	81.9485	133.301	81.8934	133.301	81.8285	133.301	81.7561	133.301	81.6998	133.301	81.6224	133.301	81.5769	133.301	81.5081	133.301	81.476	133.301	81.4286	133.301	81.4118	133.301	81.3949
139.16	82.2055	139.16	82.2235	139.16	82.1902	139.16	82.2439	139.16	82.1776	139.16	82.2661	139.16	82.1674	139.16	82.2889	139.16	82.1586	139.16	82.3098	139.16	82.149	139.16	82.3249	139.16	82.135	139.16	82.3286	139.16	82.1115	139.16	82.3145	139.16	82.073	139.16	82.2761	139.16	82.014	139.16	82.2081	139.16	81.9309	139.16	82.1077	139.16	81.8232	139.16	81.9762	139.16	81.6943	139.16	81.8198	139.16	81.5526	139.16	81.6493	139.16	81.4108	139.16	81.4802	139.16	81.2847	139.16	81.33	139.16	81.191	139.16	81.216	139.16	81.1437	139.16	81.1517
143.555	82.1261	143.555	82.1356	143.555	82.1168	143.555	82.1456	143.555	82.1076	143.555	82.1562	143.555	82.0987	143.555	82.1674	143.555	82.0899	143.555	82.1778	143.555	82.0802	143.555	82.1847	143.555	82.0674	143.555	82.1835	143.555	82.0479	143.555	82.1686	143.555	82.017	143.555	82.1338	143.555	81.9698	143.555	82.0737	143.555	81.902	143.555	81.9856	143.555	81.8119	143.555	81.8702	143.555	81.701	143.555	81.7328	143.555	81.5754	143.555	81.5837	143.555	81.4455	143.555	81.4369	143.555	81.3255	143.555	81.3091	143.555	81.2309	143.555	81.2162	143.555	81.1758	143.555	81.17
147.949	82.049	147.949	82.0409	147.949	82.0559	147.949	82.0328	147.949	82.0609	147.949	82.0256	147.949	82.0635	147.949	82.0197	147.949	82.0627	147.949	82.0145	147.949	82.0574	147.949	82.0076	147.949	82.0453	147.949	81.9945	147.949	82.0234	147.949	81.9696	147.949	81.9881	147.949	81.9265	147.949	81.9356	147.949	81.8599	147.949	81.8631	147.949	81.7675	147.949	81.7695	147.949	81.6509	147.949	81.6562	147.949	81.5165	147.949	81.528	147.949	81.3759	147.949	81.3934	147.949	81.244	147.949	81.2645	147.949	81.137	147.949	81.1553	147.949	81.0691	147.949	81.0799	147.949	81.0494
153.809	81.9304	153.809	81.9241	153.809	81.9338	153.809	81.9152	153.809	81.9342	153.809	81.904	153.809	81.9313	153.809	81.8905	153.809	81.9243	153.809	81.8741	153.809	81.9117	153.809	81.8531	153.809	81.891	153.809	81.8249	153.809	81.859	153.809	81.7862	153.809	81.8124	153.809	81.733	153.809	81.7482	153.809	81.6623	153.809	81.6649	153.809	81.5726	153.809	81.563	153.809	81.4651	153.809	81.4456	153.809	81.3446	153.809	81.3188	153.809	81.2194	153.809	81.1917	153.809	81.1009	153.809	81.0757	153.809	81.0021	153.809	80.983	153.809	80.9348	153.809	80.9246	153.809	80.9078
159.668	81.878	159.668	81.8796	159.668	81.8728	159.668	81.8774	159.668	81.8642	159.668	81.8715	159.668	81.8526	159.668	81.8616	159.668	81.8378	159.668	81.8469	159.668	81.8187	159.668	81.8258	159.668	81.7932	159.668	81.7954	159.668	81.7578	159.668	81.752	159.668	81.7084	159.668	81.6913	159.668	81.6413	159.668	81.6102	159.668	81.5542	159.668	81.5072	159.668	81.4472	159.668	81.3846	159.668	81.3239	159.668	81.2484	159.668	81.1912	159.668	81.1088	159.668	81.059	159.668	80.9787	159.668	80.9392	159.668	80.8715	159.668	80.8444	159.668	80.799	159.668	80.7853	159.668	80.7693
165.527	81.883	165.527	81.8773	165.527	81.8862	165.527	81.8702	165.527	81.8865	165.527	81.863	165.527	81.8839	165.527	81.8564	165.527	81.8784	165.527	81.8503	165.527	81.8696	165.527	81.8423	165.527	81.8557	165.527	81.8286	165.527	81.8338	165.527	81.804	165.527	81.7997	165.527	81.7629	165.527	81.749	165.527	81.7012	165.527	81.6788	165.527	81.6171	165.527	81.5886	165.527	81.5129	165.527	81.4815	165.527	81.3951	165.527	81.3643	165.527	81.2737	165.527	81.2467	165.527	81.161	165.527	81.1401	165.527	81.0693	165.527	81.0554	165.527	81.0086	165.527	81.0018	165.527	80.9854
171.387	81.8687	171.387	81.8595	171.387	81.8661	171.387	81.8396	171.387	81.8523	171.387	81.8113	171.387	81.8292	171.387	81.7776	171.387	81.7992	171.387	81.7417	171.387	81.7642	171.387	81.7049	171.387	81.7249	171.387	81.6669	171.387	81.6803	171.387	81.6243	171.387	81.6271	171.387	81.5724	171.387	81.5611	171.387	81.5057	171.387	81.4782	171.387	81.4203	171.387	81.3765	171.387	81.3153	171.387	81.2579	171.387	81.1943	171.387	81.1286	171.387	81.0657	171.387	80.999	171.387	80.9415	171.387	80.8821	171.387	80.8355	171.387	80.791	171.387	80.7606	171.387	80.7368	171.387	80.7262
177.246	81.799	177.246	81.8032	177.246	81.781	177.246	81.7926	177.246	81.7506	177.246	81.7671	177.246	81.7098	177.246	81.727	177.246	81.6597	177.246	81.6732	177.246	81.6007	177.246	81.6058	177.246	81.5319	177.246	81.5242	177.246	81.4514	177.246	81.4265	177.246	81.3566	177.246	81.3105	177.246	81.2453	177.246	81.1746	177.246	81.1167	177.246	81.0194	177.246	80.9722	177.246	80.8491	177.246	80.8161	177.246	80.6724	177.246	80.656	177.246	80.5018	177.246	80.5014	177.246	80.352	177.246	80.3631	177.246	80.237	177.246	80.2518	177.246	80.1671	177.246	80.1772	177.246	80.1473
183.105	81.3278	183.105	81.3419	183.105	81.3055	183.105	81.3472	183.105	81.2771	183.105	81.3442	183.105	81.2454	183.105	81.3335	183.105	81.2129	183.105	81.3155	183.105	81.1807	183.105	81.2892	183.105	81.1472	183.105	81.2522	183.105	81.1077	183.105	81.2007	183.105	81.0556	183.105	81.1305	183.105	80.9845	183.105	81.0379	183.105	80.8898	183.105	80.9217	183.105	80.7717	183.105	80.784	183.105	80.6356	183.105	80.6318	183.105	80.4916	183.105	80.4763	183.105	80.3527	183.105	80.3313	183.105	80.2325	183.105	80.211	183.105	80.1427	183.105	80.1269	183.105	80.0923	183.105	80.0864
188.965	81.2222	188.965	81.2502	188.965	81.1756	188.965	81.2601	188.965	81.112	188.965	81.2542	188.965	81.0356	188.965	81.2353	188.965	80.9522	188.965	81.2059	188.965	80.8681	188.965	81.1668	188.965	80.7882	188.965	81.1173	188.965	80.7145	188.965	81.0551	188.965	80.6453	188.965	80.9775	188.965	80.5766	188.965	80.8827	188.965	80.5041	188.965	80.7709	188.965	80.4254	188.965	80.6455	188.965	80.3425	188.965	80.5134	188.965	80.2604	188.965	80.3839	188.965	80.186	188.965	80.2677	188.965	80.1256	188.965	80.1738	188.965	80.0842	188.965	80.1081	188.965	80.0654	188.965	80.0724
196.289	81.337	196.289	81.3312	196.289	81.3195	196.289	81.3059	196.289	81.2769	196.289	81.2659	196.289	81.209	196.289	81.2167	196.289	81.117	196.289	81.1627	196.289	81.0037	196.289	81.1059	196.289	80.8723	196.289	81.0449	196.289	80.7266	196.289	80.9748	196.289	80.57	196.289	80.8886	196.289	80.4056	196.289	80.7799	196.289	80.2369	196.289	80.6451	196.289	80.0686	196.289	80.4859	196.289	79.9075	196.289	80.3091	196.289	79.7632	196.289	80.1261	196.289	79.6462	196.289	79.9503	196.289	79.5656	196.289	79.7946	196.289	79.527	196.289	79.6691	196.289	79.5321	196.289	79.5803
203.613	81.1455	203.613	81.1272	203.613	81.1312	203.613	81.0778	203.613	81.0856	203.613	81.0011	203.613	81.0115	203.613	80.903	203.613	80.9126	203.613	80.7904	203.613	80.7924	203.613	80.6699	203.613	80.6539	203.613	80.5466	203.613	80.4994	203.613	80.4238	203.613	80.3306	203.613	80.3027	203.613	80.1498	203.613	80.1835	203.613	79.961	203.613	80.066	203.613	79.7711	203.613	79.9498	203.613	79.5919	203.613	79.8346	203.613	79.4382	203.613	79.7211	203.613	79.3248	203.613	79.6107	203.613	79.2608	203.613	79.5062	203.613	79.246	203.613	79.4114	203.613	79.2731	203.613	79.3314
210.938	81.1219	210.938	81.0756	210.938	81.1458	210.938	81.0085	210.938	81.1465	210.938	80.923	210.938	81.1243	210.938	80.8229	210.938	81.0795	210.938	80.7116	210.938	81.0123	210.938	80.5912	210.938	80.9223	210.938	80.4609	210.938	80.8082	210.938	80.3169	210.938	80.6677	210.938	80.1539	210.938	80.4989	210.938	79.9694	210.938	80.3017	210.938	79.7673	210.938	80.0797	210.938	79.5591	210.938	79.8418	210.938	79.3616	210.938	79.6024	210.938	79.1916	210.938	79.3795	210.938	79.0602	210.938	79.1913	210.938	78.9715	210.938	79.0504	210.938	78.9252	210.938	78.9611	210.938	78.9209
218.262	80.7851	218.262	80.7748	218.262	80.774	218.262	80.7404	218.262	80.7463	218.262	80.681	218.262	80.7065	218.262	80.5984	218.262	80.6581	218.262	80.496	218.262	80.6021	218.262	80.378	218.262	80.5369	218.262	80.2479	218.262	80.459	218.262	80.1083	218.262	80.3645	218.262	79.96	218.262	80.2503	218.262	79.8041	218.262	80.1157	218.262	79.6436	218.262	79.9632	218.262	79.4858	218.262	79.7985	218.262	79.3414	218.262	79.6308	218.262	79.2222	218.262	79.4713	218.262	79.1364	218.262	79.331	218.262	79.0866	218.262	79.2182	218.262	79.0714	218.262	79.1371	218.262	79.0884
225.586	80.755	225.586	80.799	225.586	80.6805	225.586	80.8093	225.586	80.581	225.586	80.7853	225.586	80.4642	225.586	80.7287	225.586	80.3392	225.586	80.6427	225.586	80.2141	225.586	80.5309	225.586	80.0944	225.586	80.3967	225.586	79.981	225.586	80.2429	225.586	79.8716	225.586	80.0718	225.586	79.7618	225.586	79.8873	225.586	79.6492	225.586	79.6966	225.586	79.5347	225.586	79.5114	225.586	79.4233	225.586	79.347	225.586	79.322	225.586	79.2179	225.586	79.2378	225.586	79.132	225.586	79.1741	225.586	79.0874	225.586	79.1296	225.586	79.0743	225.586	79.0999	225.586	79.081
232.91	80.8184	232.91	80.8359	232.91	80.7599	232.91	80.8166	232.91	80.6593	232.91	80.766	232.91	80.5189	232.91	80.6902	232.91	80.3445	232.91	80.594	232.91	80.1447	232.91	80.4798	232.91	79.9286	232.91	80.3468	232.91	79.7051	232.91	80.1916	232.91	79.4813	232.91	80.0111	232.91	79.2637	232.91	79.8056	232.91	79.059	232.91	79.5816	232.91	78.8747	232.91	79.3533	232.91	78.7197	232.91	79.1397	232.91	78.6026	232.91	78.9593	232.91	78.5301	232.91	78.822	232.91	78.5028	232.91	78.7251	232.91	78.5139	232.91	78.6556	232.91	78.5504	232.91	78.5994
241.699	80.5788	241.699	80.5453	241.699	80.5733	241.699	80.4754	241.699	80.5297	241.699	80.3747	241.699	80.451	241.699	80.2516	241.699	80.3417	241.699	80.1155	241.699	80.2062	241.699	79.9748	241.699	80.047	241.699	79.8333	241.699	79.864	241.699	79.6882	241.699	79.656	241.699	79.5308	241.699	79.4226	241.699	79.3516	241.699	79.1684	241.699	79.147	241.699	78.9042	241.699	78.9239	241.699	78.6473	241.699	78.6998	241.699	78.4177	241.699	78.4961	241.699	78.2343	241.699	78.3294	241.699	78.1093	241.699	78.2047	241.699	78.0449	241.699	78.1171	241.699	78.0327	241.699	78.0598
250.488	80.3711	250.488	80.3803	250.488	80.3143	250.488	80.3408	250.488	80.2154	250.488	80.2555	250.488	80.0843	250.488	80.1303	250.488	79.9331	250.488	79.973	250.488	79.7739	250.488	79.7926	250.488	79.6159	250.488	79.5989	250.488	79.4634	250.488	79.4012	250.488	79.3149	250.488	79.2044	250.488	79.1648	250.488	79.007	250.488	79.007	250.488	78.8031	250.488	78.8387	250.488	78.5895	250.488	78.6616	250.488	78.3732	250.488	78.482	250.488	78.1731	250.488	78.3096	250.488	78.0129	250.488	78.1547	250.488	77.9094	250.488	78.0267	250.488	77.8662	250.488	77.9323	250.488	77.8767
259.277	80.7097	259.277	80.7034	259.277	80.6668	259.277	80.6477	259.277	80.5774	259.277	80.5444	259.277	80.4458	259.277	80.3977	259.277	80.2772	259.277	80.2131	259.277	80.0775	259.277	79.9971	259.277	79.8522	259.277	79.7566	259.277	79.6074	259.277	79.5004	259.277	79.3495	259.277	79.2398	259.277	79.0868	259.277	78.988	259.277	78.8301	259.277	78.7559	259.277	78.5941	259.277	78.548	259.277	78.3945	259.277	78.3643	259.277	78.2421	259.277	78.206	259.277	78.1368	259.277	78.0801	259.277	78.0675	259.277	77.9961	259.277	78.0193	259.277	77.9579	259.277	77.9824	259.277	77.9581
268.066	80.3548	268.066	80.3462	268.066	80.3059	268.066	80.2819	268.066	80.2013	268.066	80.167	268.066	80.0459	268.066	80.0096	268.066	79.8478	268.066	79.821	268.066	79.6169	268.066	79.6138	268.066	79.3632	268.066	79.398	268.066	79.0974	268.066	79.1789	268.066	78.8309	268.066	78.9575	268.066	78.5762	268.066	78.7345	268.066	78.346	268.066	78.5153	268.066	78.1522	268.066	78.3113	268.066	78.0051	268.066	78.1365	268.066	77.9104	268.066	78.003	268.066	77.8649	268.066	77.9164	268.066	77.8546	268.066	77.873	268.066	77.8601	268.066	77.8609	268.066	77.865	268.066	77.8632
276.855	80.2135	276.855	80.1705	276.855	80.2282	276.855	80.1036	276.855	80.2092	276.855	80.0129	276.855	80.1513	276.855	79.8919	276.855	80.0491	276.855	79.7275	276.855	79.8963	276.855	79.5054	276.855	79.6856	276.855	79.2187	276.855	79.4106	276.855	78.8748	276.855	79.0704	276.855	78.5008	276.855	78.6744	276.855	78.141	276.855	78.2453	276.855	77.8461	276.855	77.8179	276.855	77.6509	276.855	77.4345	276.855	77.5528	276.855	77.1368	276.855	77.5121	276.855	76.9536	276.855	77.4758	276.855	76.8903	276.855	77.4077	276.855	76.9275	276.855	77.2997	276.855	77.0313	276.855	77.1658
287.109	80.1475	287.109	80.1333	287.109	80.1039	287.109	80.0633	287.109	80.0056	287.109	79.944	287.109	79.8636	287.109	79.7844	287.109	79.6966	287.109	79.5951	287.109	79.5269	287.109	79.3852	287.109	79.3696	287.109	79.1584	287.109	79.2218	287.109	78.9108	287.109	79.0596	287.109	78.635	287.109	78.8508	287.109	78.3284	287.109	78.5752	287.109	78.0046	287.109	78.2432	287.109	77.6976	287.109	77.9016	287.109	77.4538	287.109	77.6181	287.109	77.3098	287.109	77.4448	287.109	77.2703	287.109	77.3849	287.109	77.3045	287.109	77.3941	287.109	77.3644	287.109	77.4149	287.109	77.4079
297.363	80.0731	297.363	80.1183	297.363	79.9725	297.363	80.1079	297.363	79.8182	297.363	80.0484	297.363	79.6083	297.363	79.9535	297.363	79.3391	297.363	79.8376	297.363	79.0139	297.363	79.7064	297.363	78.6533	297.363	79.5496	297.363	78.2959	297.363	79.3426	297.363	77.9806	297.363	79.058	297.363	77.7251	297.363	78.6824	297.363	77.52	297.363	78.2349	297.363	77.349	297.363	77.7785	297.363	77.2097	297.363	77.4125	297.363	77.1174	297.363	77.2254	297.363	77.0926	297.363	77.2276	297.363	77.1432	297.363	77.3356	297.363	77.2524	297.363	77.4345	297.363	77.3747	297.363	77.4499
307.617	80.2089	307.617	80.1543	307.617	80.2019	307.617	80.0378	307.617	80.1406	307.617	79.8668	307.617	80.0346	307.617	79.6546	307.617	79.8875	307.617	79.4189	307.617	79.6907	307.617	79.1794	307.617	79.4255	307.617	78.9548	307.617	79.0752	307.617	78.7584	307.617	78.6393	307.617	78.5887	307.617	78.1429	307.617	78.4242	307.617	77.6348	307.617	78.2295	307.617	77.1763	307.617	77.9751	307.617	76.8239	307.617	77.659	307.617	76.6109	307.617	77.3172	307.617	76.5333	307.617	77.0124	307.617	76.5487	307.617	76.8006	307.617	76.5978	307.617	76.6942	307.617	76.6361	307.617	76.6572
319.336	79.9015	319.336	79.8523	319.336	79.8676	319.336	79.7174	319.336	79.7609	319.336	79.5	319.336	79.5994	319.336	79.2095	319.336	79.4067	319.336	78.8603	319.336	79.2054	319.336	78.4692	319.336	79.0088	319.336	78.0513	319.336	78.8164	319.336	77.6217	319.336	78.6161	319.336	77.2054	319.336	78.3902	319.336	76.8476	319.336	78.121	319.336	76.6011	319.336	77.7985	319.336	76.4907	319.336	77.4332	319.336	76.4888	319.336	77.069	319.336	76.5374	319.336	76.7741	319.336	76.5873	319.336	76.6008	319.336	76.6163	319.336	76.5471	319.336	76.6198	319.336	76.5644	319.336	76.599
329.59	79.6931	329.59	79.6817	329.59	79.6712	329.59	79.6438	329.59	79.6015	329.59	79.5743	329.59	79.4692	329.59	79.4608	329.59	79.2681	329.59	79.2916	329.59	79.0044	329.59	79.0608	329.59	78.6935	329.59	78.7659	329.59	78.3501	329.59	78.4024	329.59	77.9804	329.59	77.9637	329.59	77.5854	329.59	77.456	329.59	77.173	329.59	76.9196	329.59	76.7694	329.59	76.4408	329.59	76.4169	329.59	76.1258	329.59	76.1631	329.59	76.032	329.59	76.0458	329.59	76.1184	329.59	76.0713	329.59	76.2761	329.59	76.1966	329.59	76.3983	329.59	76.3404	329.59	76.4223
341.309	79.6428	341.309	79.6395	341.309	79.5665	341.309	79.5551	341.309	79.4238	341.309	79.401	341.309	79.2352	341.309	79.1966	341.309	79.0207	341.309	78.962	341.309	78.7946	341.309	78.7106	341.309	78.5614	341.309	78.4459	341.309	78.3163	341.309	78.1577	341.309	78.0508	341.309	77.8217	341.309	77.7614	341.309	77.4086	341.309	77.4568	341.309	76.9108	341.309	77.1586	341.309	76.3789	341.309	76.8911	341.309	75.9375	341.309	76.6677	341.309	75.7222	341.309	76.4889	341.309	75.7556	341.309	76.3543	341.309	75.9217	341.309	76.2675	341.309	76.0823	341.309	76.2204	341.309	76.1757
353.027	79.5304	353.027	79.5627	353.027	79.454	353.027	79.5554	353.027	79.3215	353.027	79.5026	353.027	79.1199	353.027	79.3922	353.027	78.8424	353.027	79.2148	353.027	78.4924	353.027	78.9687	353.027	78.0806	353.027	78.658	353.027	77.6188	353.027	78.2864	353.027	77.1125	353.027	77.8597	353.027	76.5647	353.027	77.3918	353.027	75.9982	353.027	76.903	353.027	75.4874	353.027	76.411	353.027	75.1562	353.027	75.9441	353.027	75.0972	353.027	75.5785	353.027	75.2789	353.027	75.4277	353.027	75.5701	353.027	75.5297	353.027	75.8355	353.027	75.7652	353.027	75.9802	353.027	75.9524
366.211	79.2857	366.211	79.156	366.211	79.3276	366.211	78.9486	366.211	79.2917	366.211	78.7012	366.211	79.1931	366.211	78.4668	366.211	79.0393	366.211	78.2852	366.211	78.8315	366.211	78.1611	366.211	78.5716	366.211	78.069	366.211	78.2619	366.211	77.9706	366.211	77.8946	366.211	77.8227	366.211	77.4448	366.211	77.5831	366.211	76.8831	366.211	77.2289	366.211	76.2066	366.211	76.7745	366.211	75.4732	366.211	76.2654	366.211	74.8142	366.211	75.7513	366.211	74.3799	366.211	75.275	366.211	74.2232	366.211	74.885	366.211	74.2561	366.211	74.6191	366.211	74.3529	366.211	74.462
379.395	79.7705	379.395	79.7538	379.395	79.7127	379.395	79.6459	379.395	79.6008	379.395	79.4363	379.395	79.4563	379.395	79.1265	379.395	79.295	379.395	78.7352	379.395	79.1184	379.395	78.2956	379.395	78.9142	379.395	77.8358	379.395	78.6688	379.395	77.3608	379.395	78.3771	379.395	76.8592	379.395	78.0352	379.395	76.3324	379.395	77.6259	379.395	75.8167	379.395	77.1266	379.395	75.3816	379.395	76.5479	379.395	75.1062	379.395	75.9734	379.395	75.0384	379.395	75.5479	379.395	75.154	379.395	75.3771	379.395	75.3566	379.395	75.4231	379.395	75.5307	379.395	75.5411	379.395	75.5972
392.578	79.325	392.578	79.3479	392.578	79.2354	392.578	79.3126	392.578	79.0735	392.578	79.2255	392.578	78.845	392.578	79.0899	392.578	78.5755	392.578	78.9089	392.578	78.3057	392.578	78.6905	392.578	78.0697	392.578	78.445	392.578	77.8697	392.578	78.1692	392.578	77.673	392.578	77.8304	392.578	77.4328	392.578	77.3779	392.578	77.1138	392.578	76.7909	392.578	76.7083	392.578	76.1312	392.578	76.2506	392.578	75.5512	392.578	75.823	392.578	75.2066	392.578	75.5242	392.578	75.1276	392.578	75.399	392.578	75.2112	392.578	75.398	392.578	75.3317	392.578	75.4262	392.578	75.4117
405.762	79.3184	405.762	79.2657	405.762	79.2527	405.762	79.0991	405.762	79.0748	405.762	78.8395	405.762	78.8007	405.762	78.5276	405.762	78.4617	405.762	78.2183	405.762	78.1093	405.762	77.959	405.762	77.8017	405.762	77.7663	405.762	77.572	405.762	77.6197	405.762	77.4073	405.762	77.4754	405.762	77.2632	405.762	77.2812	405.762	77.0899	405.762	76.9863	405.762	76.843	405.762	76.5606	405.762	76.4911	405.762	76.0288	405.762	76.0444	405.762	75.4936	405.762	75.5844	405.762	75.0965	405.762	75.2325	405.762	74.9097	405.762	75.0454	405.762	74.8846	405.762	74.9698	405.762	74.9236
420.41	80.2109	420.41	80.1581	420.41	80.1213	420.41	79.9744	420.41	79.8919	420.41	79.6696	420.41	79.5465	420.41	79.2507	420.41	79.1198	420.41	78.7388	420.41	78.642	420.41	78.1896	420.41	78.1375	420.41	77.6886	420.41	77.632	420.41	77.3061	420.41	77.1426	420.41	77.0478	420.41	76.6608	420.41	76.8542	420.41	76.168	420.41	76.6526	420.41	75.6764	420.41	76.4116	420.41	75.2367	420.41	76.1572	420.41	74.8982	420.41	75.9407	420.41	74.6894	420.41	75.7833	420.41	74.6386	420.41	75.6537	420.41	74.7584	420.41	75.4953	420.41	75.001	420.41	75.272
435.059	79.7263	435.059	79.6339	435.059	79.6874	435.059	79.4343	435.059	79.5128	435.059	79.1613	435.059	79.2148	435.059	78.8299	435.059	78.8218	435.059	78.4231	435.059	78.3852	435.059	77.9241	435.059	77.9767	435.059	77.3758	435.059	77.658	435.059	76.895	435.059	77.4388	435.059	76.59	435.059	77.2686	435.059	76.4456	435.059	77.0806	435.059	76.3335	435.059	76.847	435.059	76.1497	435.059	76.5973	435.059	75.9254	435.059	76.3825	435.059	75.8128	435.059	76.2317	435.059	75.9268	435.059	76.1596	435.059	76.1883	435.059	76.1882	435.059	76.3945	435.059	76.3076	435.059	76.421
451.172	81.0805	451.172	81.061	451.172	80.9582	451.172	80.8809	451.172	80.7036	451.172	80.5199	451.172	80.3212	451.172	79.9798	451.172	79.8093	451.172	79.3034	451.172	79.1538	451.172	78.5655	451.172	78.3457	451.172	77.8293	451.172	77.4413	451.172	77.1104	451.172	76.6116	451.172	76.4092	451.172	76.0539	451.172	75.7988	451.172	75.7934	451.172	75.4356	451.172	75.7041	451.172	75.3977	451.172	75.7281	451.172	75.5723	451.172	75.9129	451.172	75.8062	451.172	76.25	451.172	76.0572	451.172	76.6105	451.172	76.3466	451.172	76.8609	451.172	76.6443	451.172	76.9464	451.172	76.8659
465.82	80.9338	465.82	80.8665	465.82	80.8711	465.82	80.6748	465.82	80.6809	465.82	80.3745	465.82	80.3767	465.82	79.9879	465.82	79.9853	465.82	79.5269	465.82	79.5319	465.82	78.9809	465.82	79.0121	465.82	78.3348	465.82	78.39	465.82	77.6092	465.82	77.6523	465.82	76.8739	465.82	76.872	465.82	76.2038	465.82	76.1842	465.82	75.6338	465.82	75.6631	465.82	75.1965	465.82	75.3021	465.82	74.9736	465.82	75.1469	465.82	75.016	465.82	75.2635	465.82	75.2275	465.82	75.5386	465.82	75.4453	465.82	75.7467	465.82	75.5985	465.82	75.7859	465.82	75.7113
483.398	80.7998	483.398	80.7985	483.398	80.7183	483.398	80.7186	483.398	80.5454	483.398	80.5553	483.398	80.261	483.398	80.2842	483.398	79.8406	483.398	79.8749	483.398	79.2855	483.398	79.3216	483.398	78.638	483.398	78.6452	483.398	77.9404	483.398	77.8492	483.398	77.1861	483.398	76.9008	483.398	76.3717	483.398	75.8291	483.398	75.6246	483.398	74.8886	483.398	75.185	483.398	74.4804	483.398	75.144	483.398	74.6632	483.398	75.3479	483.398	75.1076	483.398	75.6473	483.398	75.5825	483.398	76.0032	483.398	76.0375	483.398	76.3628	483.398	76.4207	483.398	76.6078	483.398	76.6337
499.512	80.5073	499.512	80.5	499.512	80.4254	499.512	80.3981	499.512	80.2663	499.512	80.1951	499.512	80.0512	499.512	79.8857	499.512	79.7852	499.512	79.4669	499.512	79.4269	499.512	78.9409	499.512	78.9107	499.512	78.3322	499.512	78.2124	499.512	77.6966	499.512	77.3856	499.512	77.0722	499.512	76.5182	499.512	76.4106	499.512	75.6654	499.512	75.6231	499.512	74.8722	499.512	74.7775	499.512	74.2702	499.512	74.2492	499.512	74.0509	499.512	74.4034	499.512	74.2745	499.512	75.0616	499.512	74.8105	499.512	75.7639	499.512	75.4556	499.512	76.2106	499.512	76.0051	499.512	76.2893
517.09	80.8077	517.09	80.6835	517.09	80.805	517.09	80.4696	517.09	80.6723	517.09	80.2222	517.09	80.4295	517.09	79.9706	517.09	80.1077	517.09	79.6825	517.09	79.7377	517.09	79.2854	517.09	79.3266	517.09	78.724	517.09	78.8372	517.09	77.9972	517.09	78.195	517.09	77.1378	517.09	77.3252	517.09	76.1624	517.09	76.2209	517.09	75.12	517.09	75.0454	517.09	74.287	517.09	74.1973	517.09	74.125	517.09	74.0855	517.09	74.6816	517.09	74.6886	517.09	75.5215	517.09	75.6089	517.09	76.3004	517.09	76.4554	517.09	76.868	517.09	76.9917	517.09	77.1245
536.133	80.4423	536.133	80.3915	536.133	80.2825	536.133	80.1545	536.133	79.9231	536.133	79.7716	536.133	79.4141	536.133	79.2871	536.133	78.8297	536.133	78.7573	536.133	78.2462	536.133	78.2446	536.133	77.7036	536.133	77.7631	536.133	77.1764	536.133	77.2236	536.133	76.6181	536.133	76.4774	536.133	76.0299	536.133	75.4521	536.133	75.4219	536.133	74.2867	536.133	74.7804	536.133	73.3779	536.133	74.2453	536.133	73.1651	536.133	74.1985	536.133	73.6729	536.133	74.7571	536.133	74.4973	536.133	75.5078	536.133	75.2692	536.133	76.0562	536.133	75.8436	536.133	76.277	536.133	76.1897
555.176	80.9772	555.176	80.9663	555.176	80.887	555.176	80.8232	555.176	80.7096	555.176	80.5325	555.176	80.438	555.176	80.1168	555.176	80.0632	555.176	79.6263	555.176	79.5877	555.176	79.1142	555.176	79.0293	555.176	78.6019	555.176	78.3946	555.176	78.0393	555.176	77.6168	555.176	77.3086	555.176	76.5373	555.176	76.2629	555.176	74.9928	555.176	74.7341	555.176	72.9746	555.176	72.5919	555.176	70.9586	555.176	70.3044	555.176	70.212	555.176	69.9466	555.176	71.315	555.176	71.8133	555.176	73.0899	555.176	73.7414	555.176	74.5564	555.176	74.9959	555.176	75.3907	555.176	75.5377
574.219	81.8278	574.219	81.786	574.219	81.6714	574.219	81.5479	574.219	81.3216	574.219	81.1197	574.219	80.8023	574.219	80.5257	574.219	80.1604	574.219	79.8207	574.219	79.4461	574.219	79.0594	574.219	78.7055	574.219	78.2663	574.219	78.0342	574.219	77.4958	574.219	77.5723	574.219	76.8692	574.219	77.2682	574.219	76.3688	574.219	76.7823	574.219	75.7129	574.219	75.7964	574.219	74.6527	574.219	74.245	574.219	73.2868	574.219	72.3959	574.219	72.0974	574.219	71.0503	574.219	71.6329	574.219	71.0819	574.219	72.0024	574.219	71.9959	574.219	72.6806	574.219	72.7912	574.219	73.0358
594.727	81.3914	594.727	81.3265	594.727	81.3181	594.727	81.142	594.727	81.0959	594.727	80.8521	594.727	80.7294	594.727	80.4521	594.727	80.2313	594.727	79.9177	594.727	79.6097	594.727	79.246	594.727	78.8587	594.727	78.4915	594.727	77.9356	594.727	77.7026	594.727	76.7814	594.727	76.8402	594.727	75.4698	594.727	75.8777	594.727	74.3288	594.727	74.9552	594.727	73.6969	594.727	74.26	594.727	73.5631	594.727	73.8121	594.727	73.7061	594.727	73.6006	594.727	73.9006	594.727	73.7049	594.727	74.0236	594.727	74.0596	594.727	74.1158	594.727	74.3564	594.727	74.2524	594.727	74.3904
615.234	81.1058	615.234	81.1056	615.234	81.0241	615.234	80.9982	615.234	80.8674	615.234	80.7655	615.234	80.6158	615.234	80.4119	615.234	80.2427	615.234	79.9412	615.234	79.7354	615.234	79.3237	615.234	79.0963	615.234	78.5169	615.234	78.3246	615.234	77.5091	615.234	77.3811	615.234	76.3043	615.234	76.1885	615.234	74.9132	615.234	74.7815	615.234	73.4841	615.234	73.4431	615.234	72.3859	615.234	72.4565	615.234	71.9776	615.234	71.9394	615.234	72.3553	615.234	72.1093	615.234	73.1632	615.234	72.933	615.234	73.9002	615.234	73.9088	615.234	74.4239	615.234	74.564	615.234	74.7035
637.207	81.1075	637.207	81.0223	637.207	81.0446	637.207	80.8307	637.207	80.8237	637.207	80.5613	637.207	80.4716	637.207	80.2139	637.207	80.0199	637.207	79.7911	637.207	79.4933	637.207	79.3105	637.207	78.9135	637.207	78.7684	637.207	78.2983	637.207	78.1143	637.207	77.6611	637.207	77.296	637.207	76.9187	637.207	76.2616	637.207	75.8077	637.207	74.882	637.207	74.1678	637.207	73.2128	637.207	72.4352	637.207	72.1261	637.207	71.4365	637.207	72.4082	637.207	71.4468	637.207	73.3949	637.207	72.2536	637.207	74.4492	637.207	73.443	637.207	75.1708	637.207	74.5604	637.207	75.2209
659.18	80.6468	659.18	80.6107	659.18	80.5479	659.18	80.418	659.18	80.3474	659.18	80.151	659.18	80.0551	659.18	79.8989	659.18	79.7051	659.18	79.5889	659.18	79.3026	659.18	79.0584	659.18	78.7587	659.18	78.2225	659.18	77.9464	659.18	77.1161	659.18	76.7647	659.18	75.8309	659.18	75.2045	659.18	74.4543	659.18	73.4648	659.18	73.18	659.18	71.9728	659.18	72.3461	659.18	71.2897	659.18	72.1328	659.18	71.6931	659.18	72.4376	659.18	72.6278	659.18	72.9094	659.18	73.4344	659.18	73.2842	659.18	73.9058	659.18	73.6213	659.18	74.0589	659.18	73.9329
682.617	79.665	682.617	79.8616	682.617	79.4304	682.617	79.9575	682.617	79.2373	682.617	79.8575	682.617	79.1762	682.617	79.5903	682.617	79.1587	682.617	79.3265	682.617	78.996	682.617	79.1164	682.617	78.633	682.617	78.7941	682.617	78.0826	682.617	78.0976	682.617	77.2171	682.617	76.7681	682.617	75.7551	682.617	74.6639	682.617	73.4088	682.617	71.8294	682.617	70.3219	682.617	69.1393	682.617	68.7711	682.617	69.6008	682.617	70.6941	682.617	72.2284	682.617	73.1643	682.617	74.3795	682.617	74.9363	682.617	75.7302	682.617	75.9594	682.617	76.3862	682.617	76.4127	682.617	76.5425
707.52	80.3069	707.52	80.1523	707.52	80.1615	707.52	79.7316	707.52	79.7598	707.52	79.2171	707.52	79.231	707.52	78.8593	707.52	78.8932	707.52	78.8772	707.52	79.0062	707.52	79.2738	707.52	79.3989	707.52	79.7584	707.52	79.6713	707.52	79.9885	707.52	79.4876	707.52	79.5898	707.52	78.552	707.52	78.0173	707.52	76.3981	707.52	74.4968	707.52	71.9887	707.52	67.5157	707.52	63.403	707.52	64.8329	707.52	69.0583	707.52	71.8686	707.52	74.2276	707.52	75.6885	707.52	76.7694	707.52	77.9196	707.52	78.2731	707.52	79.1316	707.52	79.2069	707.52	79.5311
732.422	82.3992	732.422	82.1986	732.422	82.2757	732.422	81.7308	732.422	81.7422	732.422	81.0538	732.422	80.7405	732.422	80.211	732.422	79.4938	732.422	79.3674	732.422	78.7711	732.422	79.0288	732.422	79.1985	732.422	79.3884	732.422	80.1058	732.422	79.8105	732.422	80.6346	732.422	79.7349	732.422	80.4797	732.422	78.8775	732.422	79.4602	732.422	76.732	732.422	77.0219	732.422	71.7619	732.422	71.4983	732.422	52.8256	732.422	53.1032	732.422	71.2444	732.422	71.7671	732.422	76.4188	732.422	76.9174	732.422	78.5572	732.422	79.1887	732.422	79.4626	732.422	79.9536	732.422	79.8961
757.324	83.4799	757.324	83.3721	757.324	83.2187	757.324	82.8318	757.324	82.5428	757.324	81.8337	757.324	81.3602	757.324	80.5265	757.324	79.7448	757.324	79.1701	757.324	78.1896	757.324	78.3217	757.324	77.7588	757.324	79.0133	757.324	78.8382	757.324	80.6907	757.324	80.2397	757.324	81.7968	757.324	80.9603	757.324	81.6898	757.324	80.5903	757.324	80.1876	757.324	78.7984	757.324	76.8514	757.324	74.771	757.324	69.5708	757.324	64.9517	757.324	66.9486	757.324	69.8335	757.324	75.326	757.324	76.2721	757.324	78.8087	757.324	79.1077	757.324	80.4351	757.324	80.4912	757.324	80.9371
785.156	84.0001	785.156	84.0672	785.156	83.8134	785.156	83.8741	785.156	83.5289	785.156	83.2229	785.156	83.0444	785.156	81.954	785.156	82.0892	785.156	80.0149	785.156	80.3688	785.156	77.792	785.156	78.3065	785.156	76.6256	785.156	77.9852	785.156	77.669	785.156	79.4106	785.156	79.6026	785.156	80.4566	785.156	80.7852	785.156	80.49	785.156	80.6628	785.156	79.4143	785.156	78.9491	785.156	76.8911	785.156	74.9646	785.156	72.2897	785.156	68.6888	785.156	69.7234	785.156	73.1315	785.156	74.3972	785.156	77.9146	785.156	77.9991	785.156	80.2305	785.156	80.0816	785.156	80.8496
811.523	83.906	811.523	83.7064	811.523	83.7938	811.523	83.4081	811.523	83.4178	811.523	83.082	811.523	82.9231	811.523	82.4486	811.523	82.0581	811.523	81.1038	811.523	80.2962	811.523	78.7424	811.523	77.372	811.523	75.6381	811.523	74.3485	811.523	74.2111	811.523	75.0379	811.523	76.108	811.523	77.62	811.523	78.4765	811.523	79.3211	811.523	79.6866	811.523	79.7594	811.523	79.2368	811.523	78.5948	811.523	76.87	811.523	75.1879	811.523	72.121	811.523	68.8982	811.523	66.4025	811.523	69.2469	811.523	71.0419	811.523	73.7062	811.523	74.9687	811.523	75.8931	811.523	76.3706
840.82	83.3928	840.82	83.3936	840.82	83.3387	840.82	83.074	840.82	83.2768	840.82	82.4542	840.82	82.9928	840.82	81.8248	840.82	82.3506	840.82	81.0731	840.82	81.2285	840.82	79.6348	840.82	79.3631	840.82	77.1805	840.82	76.7472	840.82	74.4294	840.82	75.2487	840.82	74.5095	840.82	76.9417	840.82	77.0217	840.82	78.9946	840.82	78.6902	840.82	79.8277	840.82	78.8296	840.82	79.2828	840.82	77.5198	840.82	77.3472	840.82	74.652	840.82	73.6741	840.82	70.4658	840.82	67.7849	840.82	70.2886	840.82	69.7589	840.82	72.5973	840.82	73.4506	840.82	73.8755
870.117	82.4534	870.117	82.5342	870.117	82.3959	870.117	82.6507	870.117	82.3089	870.117	82.668	870.117	82.1326	870.117	82.4313	870.117	81.7674	870.117	81.9439	870.117	81.1201	870.117	81.2039	870.117	80.1066	870.117	79.9907	870.117	78.5967	870.117	78.2371	870.117	76.7338	870.117	76.6325	870.117	76.4035	870.117	76.6497	870.117	78.059	870.117	78.0326	870.117	79.4115	870.117	78.9813	870.117	79.5811	870.117	78.357	870.117	77.9963	870.117	75.4202	870.117	74.3351	870.117	69.4034	870.117	68.3187	870.117	58.8552	870.117	55.4239	870.117	65.2823	870.117	64.4995	870.117	68.043
900.879	82.5446	900.879	82.3728	900.879	82.3732	900.879	82.0274	900.879	82.1308	900.879	81.7631	900.879	82.1172	900.879	81.5234	900.879	81.9996	900.879	81.044	900.879	81.4187	900.879	80.2315	900.879	80.4493	900.879	79.016	900.879	79.1393	900.879	77.1213	900.879	77.4369	900.879	75.3941	900.879	75.9066	900.879	75.9648	900.879	76.4912	900.879	76.9964	900.879	77.6147	900.879	76.7769	900.879	77.0948	900.879	75.7798	900.879	75.3093	900.879	73.6833	900.879	72.4857	900.879	68.4711	900.879	66.8781	900.879	59.955	900.879	61.6518	900.879	65.4067	900.879	67.604	900.879	68.5844
933.105	83.1886	933.105	83.304	933.105	83.0634	933.105	83.0891	933.105	82.7071	933.105	82.297	933.105	81.9902	933.105	81.3361	933.105	81.297	933.105	80.7184	933.105	80.626	933.105	80.2793	933.105	79.632	933.105	79.7188	933.105	78.4435	933.105	78.7858	933.105	77.5109	933.105	77.7079	933.105	77.5091	933.105	77.1845	933.105	77.7525	933.105	77.524	933.105	77.6369	933.105	78.2716	933.105	77.4953	933.105	77.6384	933.105	76.0945	933.105	74.878	933.105	71.87	933.105	69.6083	933.105	63.8534	933.105	59.0481	933.105	62.0446	933.105	62.5707	933.105	66.1874	933.105	66.1452
965.332	83.6581	965.332	83.3223	965.332	83.5562	965.332	82.8906	965.332	83.0785	965.332	82.4718	965.332	82.4726	965.332	81.8051	965.332	81.6111	965.332	80.7381	965.332	80.4752	965.332	79.3444	965.332	79.3336	965.332	77.9379	965.332	78.1559	965.332	76.6618	965.332	76.6047	965.332	75.7324	965.332	75.1407	965.332	75.9782	965.332	75.7207	965.332	76.5764	965.332	77.0154	965.332	76.5507	965.332	77.5266	965.332	75.7403	965.332	76.5239	965.332	73.5374	965.332	73.3662	965.332	70.0482	965.332	69.387	965.332	69.1823	965.332	68.7288	965.332	71.9787	965.332	71.3092	965.332	73.0651
1,000.49	82.9877	1,000.49	82.8068	1,000.49	82.8533	1,000.49	82.5336	1,000.49	82.329	1,000.49	82.0558	1,000.49	81.6672	1,000.49	81.2292	1,000.49	80.8796	1,000.49	80.1769	1,000.49	79.96	1,000.49	79.0298	1,000.49	78.952	1,000.49	77.8561	1,000.49	77.4084	1,000.49	76.781	1,000.49	75.6277	1,000.49	75.8544	1,000.49	75.6839	1,000.49	75.8885	1,000.49	76.4151	1,000.49	76.705	1,000.49	76.7168	1,000.49	76.7924	1,000.49	76.7918	1,000.49	75.1917	1,000.49	75.407	1,000.49	72.0961	1,000.49	71.1619	1,000.49	68.5399	1,000.49	66.9486	1,000.49	66.8674	1,000.49	68.0577	1,000.49	69.834	1,000.49	69.3273	1,000.49	70.4687
1,035.64	82.764	1,035.64	82.9036	1,035.64	82.5263	1,035.64	82.7068	1,035.64	82.0892	1,035.64	81.9395	1,035.64	81.4816	1,035.64	80.8781	1,035.64	80.6836	1,035.64	79.8365	1,035.64	79.6232	1,035.64	78.4738	1,035.64	78.2427	1,035.64	76.7036	1,035.64	76.8638	1,035.64	75.1603	1,035.64	75.7741	1,035.64	73.5833	1,035.64	73.6549	1,035.64	73.811	1,035.64	74.2648	1,035.64	75.3771	1,035.64	76.6688	1,035.64	75.767	1,035.64	76.8631	1,035.64	75.3207	1,035.64	75.4011	1,035.64	73.4529	1,035.64	71.4816	1,035.64	69.8984	1,035.64	66.1767	1,035.64	66.6538	1,035.64	68.6593	1,035.64	70.0031	1,035.64	71.316	1,035.64	72.008
1,072.27	82.7323	1,072.27	82.303	1,072.27	82.8307	1,072.27	82.1099	1,072.27	82.2278	1,072.27	81.6766	1,072.27	81.272	1,072.27	80.5945	1,072.27	80.1651	1,072.27	79.7385	1,072.27	78.7775	1,072.27	78.8537	1,072.27	77.2009	1,072.27	77.2696	1,072.27	75.3923	1,072.27	75.8741	1,072.27	73.8608	1,072.27	74.9124	1,072.27	73.2673	1,072.27	75.0638	1,072.27	73.3469	1,072.27	74.9391	1,072.27	74.7477	1,072.27	75.3868	1,072.27	75.7774	1,072.27	74.329	1,072.27	74.5099	1,072.27	69.7673	1,072.27	70.4243	1,072.27	67.0011	1,072.27	66.5172	1,072.27	69.2435	1,072.27	71.3943	1,072.27	71.9526	1,072.27	73.0935	1,072.27	72.8268
1,108.89	81.8743	1,108.89	82.1087	1,108.89	81.6985	1,108.89	81.5305	1,108.89	81.2575	1,108.89	80.4769	1,108.89	80.5413	1,108.89	79.7168	1,108.89	79.7271	1,108.89	78.7707	1,108.89	78.501	1,108.89	77.5407	1,108.89	77.8049	1,108.89	75.4489	1,108.89	76.376	1,108.89	72.2338	1,108.89	72.5947	1,108.89	69.8341	1,108.89	68.4755	1,108.89	70.3522	1,108.89	69.1843	1,108.89	72.4989	1,108.89	72.0522	1,108.89	72.7064	1,108.89	72.27	1,108.89	71.7788	1,108.89	71.0507	1,108.89	68.2591	1,108.89	64.8603	1,108.89	62.8898	1,108.89	65.4335	1,108.89	65.6891	1,108.89	70.356	1,108.89	70.4999	1,108.89	72.818	1,108.89	73.3692
1,148.44	81.1837	1,148.44	81.0811	1,148.44	81.6036	1,148.44	81.1189	1,148.44	81.2564	1,148.44	80.3498	1,148.44	80.1229	1,148.44	79.504	1,148.44	79.0719	1,148.44	79.0807	1,148.44	77.8741	1,148.44	78.1179	1,148.44	76.7352	1,148.44	76.615	1,148.44	76.1065	1,148.44	74.2066	1,148.44	74.6397	1,148.44	70.1662	1,148.44	70.9307	1,148.44	69.2433	1,148.44	68.7155	1,148.44	70.3756	1,148.44	71.0853	1,148.44	71.2922	1,148.44	72.5164	1,148.44	69.9914	1,148.44	70.1363	1,148.44	63.6181	1,148.44	60.3888	1,148.44	51.7762	1,148.44	59.778	1,148.44	64.7236	1,148.44	67.953	1,148.44	70.6568	1,148.44	70.4048	1,148.44	71.6798
1,189.45	81.4167	1,189.45	81.5908	1,189.45	80.7135	1,189.45	80.4716	1,189.45	80.4338	1,189.45	79.8823	1,189.45	79.7739	1,189.45	79.4831	1,189.45	78.5164	1,189.45	78.7908	1,189.45	76.633	1,189.45	78.3747	1,189.45	75.364	1,189.45	77.4201	1,189.45	74.892	1,189.45	75.9464	1,189.45	74.0134	1,189.45	72.0341	1,189.45	71.9839	1,189.45	64.9603	1,189.45	67.1448	1,189.45	70.9485	1,189.45	64.4583	1,189.45	73.6974	1,189.45	65.4295	1,189.45	73.8375	1,189.45	66.5213	1,189.45	69.8046	1,189.45	64.1644	1,189.45	59.4702	1,189.45	50.6052	1,189.45	64.0726	1,189.45	64.2478	1,189.45	68.8514	1,189.45	67.4124	1,189.45	68.0628
1,230.47	82.0502	1,230.47	82.1112	1,230.47	81.4868	1,230.47	81.5941	1,230.47	81.0691	1,230.47	80.7934	1,230.47	80.2727	1,230.47	79.5908	1,230.47	79.3524	1,230.47	78.8647	1,230.47	78.416	1,230.47	78.346	1,230.47	77.3806	1,230.47	77.3092	1,230.47	76.4621	1,230.47	75.718	1,230.47	75.4205	1,230.47	72.7037	1,230.47	73.2132	1,230.47	66.4506	1,230.47	70.7431	1,230.47	69.0212	1,230.47	70.6765	1,230.47	71.1577	1,230.47	70.9848	1,230.47	71.1852	1,230.47	69.4917	1,230.47	66.8861	1,230.47	68.1948	1,230.47	50.466	1,230.47	57.1822	1,230.47	64.3631	1,230.47	62.497	1,230.47	70.391	1,230.47	67.2663	1,230.47	70.2154
1,274.41	82.5693	1,274.41	82.8029	1,274.41	82.2165	1,274.41	82.2433	1,274.41	81.7151	1,274.41	81.1902	1,274.41	80.5275	1,274.41	80.1833	1,274.41	79.4182	1,274.41	79.3456	1,274.41	78.4517	1,274.41	78.8553	1,274.41	77.6786	1,274.41	78.6219	1,274.41	77.0183	1,274.41	77.7815	1,274.41	75.9268	1,274.41	75.5763	1,274.41	74.5003	1,274.41	70.9876	1,274.41	73.0051	1,274.41	68.1695	1,274.41	72.247	1,274.41	71.4099	1,274.41	71.0056	1,274.41	73.534	1,274.41	70.2178	1,274.41	70.3956	1,274.41	69.2322	1,274.41	60.7039	1,274.41	61.0317	1,274.41	58.4224	1,274.41	64.938	1,274.41	68.5899	1,274.41	66.8523	1,274.41	70.2861
1,319.82	83.1244	1,319.82	82.9498	1,319.82	82.7458	1,319.82	82.2845	1,319.82	82.2501	1,319.82	81.4989	1,319.82	81.3432	1,319.82	80.3692	1,319.82	80.0493	1,319.82	79.1334	1,319.82	79.0463	1,319.82	78.3382	1,319.82	77.6419	1,319.82	77.9355	1,319.82	75.6777	1,319.82	76.2827	1,319.82	75.0037	1,319.82	73.426	1,319.82	73.3894	1,319.82	71.386	1,319.82	71.5714	1,319.82	70.5858	1,319.82	72.6013	1,319.82	71.2499	1,319.82	72.6734	1,319.82	73.0117	1,319.82	71.8807	1,319.82	70.018	1,319.82	69.3645	1,319.82	58.9756	1,319.82	58.2876	1,319.82	62.4379	1,319.82	62.0306	1,319.82	69.9036	1,319.82	68.5679	1,319.82	71.2795
1,366.7	83.2106	1,366.7	83.2195	1,366.7	82.5168	1,366.7	82.8184	1,366.7	81.6458	1,366.7	81.4752	1,366.7	81.1915	1,366.7	80.1284	1,366.7	79.8099	1,366.7	79.0145	1,366.7	79.2351	1,366.7	78.2883	1,366.7	78.5161	1,366.7	78.3534	1,366.7	76.7152	1,366.7	77.6277	1,366.7	75.502	1,366.7	75.2571	1,366.7	74.6148	1,366.7	72.3171	1,366.7	73.4272	1,366.7	68.786	1,366.7	74.0493	1,366.7	68.709	1,366.7	73.3215	1,366.7	70.3682	1,366.7	70.8958	1,366.7	68.5861	1,366.7	67.0411	1,366.7	61.1221	1,366.7	50.3515	1,366.7	59.0396	1,366.7	67.3406	1,366.7	70.0748	1,366.7	69.7997	1,366.7	72.514
1,413.57	82.7276	1,413.57	82.4916	1,413.57	82.2581	1,413.57	81.8002	1,413.57	81.6094	1,413.57	81.0929	1,413.57	80.4183	1,413.57	79.827	1,413.57	78.92	1,413.57	78.5455	1,413.57	77.1884	1,413.57	77.9496	1,413.57	76.7485	1,413.57	76.9572	1,413.57	76.0545	1,413.57	75.7842	1,413.57	73.9516	1,413.57	73.8968	1,413.57	72.9613	1,413.57	70.6501	1,413.57	70.7288	1,413.57	68.0238	1,413.57	71.5711	1,413.57	67.37	1,413.57	72.5421	1,413.57	70.1798	1,413.57	71.1419	1,413.57	70.478	1,413.57	66.0977	1,413.57	62.2505	1,413.57	43.5239	1,413.57	55.9549	1,413.57	64.5645	1,413.57	68.0364	1,413.57	69.1475	1,413.57	69.1113
1,463.38	82.1179	1,463.38	82.0649	1,463.38	81.9952	1,463.38	81.4105	1,463.38	81.2278	1,463.38	80.9217	1,463.38	79.7994	1,463.38	79.9131	1,463.38	78.5189	1,463.38	78.3662	1,463.38	77.1383	1,463.38	76.3662	1,463.38	75.7727	1,463.38	74.207	1,463.38	74.1953	1,463.38	73.5494	1,463.38	73.4199	1,463.38	70.7894	1,463.38	71.3321	1,463.38	68.3865	1,463.38	67.7204	1,463.38	66.7613	1,463.38	68.605	1,463.38	67.1416	1,463.38	70.5045	1,463.38	68.7269	1,463.38	70.0757	1,463.38	68.556	1,463.38	68.0217	1,463.38	57.3137	1,463.38	59.8566	1,463.38	55.3662	1,463.38	64.8042	1,463.38	67.762	1,463.38	69.5202	1,463.38	70.548
1,516.11	81.3931	1,516.11	81.7502	1,516.11	81.3704	1,516.11	81.325	1,516.11	81.0482	1,516.11	80.4579	1,516.11	79.8872	1,516.11	79.2395	1,516.11	77.7412	1,516.11	77.1255	1,516.11	76.3193	1,516.11	75.7876	1,516.11	74.0689	1,516.11	74.874	1,516.11	72.0528	1,516.11	72.8614	1,516.11	72.1032	1,516.11	69.8332	1,516.11	67.6901	1,516.11	67.6963	1,516.11	66.2495	1,516.11	65.5856	1,516.11	67.4155	1,516.11	68.8649	1,516.11	68.3671	1,516.11	70.4009	1,516.11	65.528	1,516.11	67.0634	1,516.11	64.915	1,516.11	44.2527	1,516.11	45.6939	1,516.11	63.6537	1,516.11	65.9706	1,516.11	66.8426	1,516.11	69.478	1,516.11	69.754
1,568.85	79.2463	1,568.85	79.473	1,568.85	79.3568	1,568.85	79.0929	1,568.85	78.8393	1,568.85	77.9266	1,568.85	78.3606	1,568.85	75.687	1,568.85	77.3727	1,568.85	73.7903	1,568.85	76.1036	1,568.85	73.7676	1,568.85	72.6356	1,568.85	71.6184	1,568.85	68.1299	1,568.85	68.9041	1,568.85	69.7186	1,568.85	65.6362	1,568.85	68.6585	1,568.85	56.1398	1,568.85	65.5127	1,568.85	61.7466	1,568.85	60.749	1,568.85	61.893	1,568.85	62.9111	1,568.85	67.1639	1,568.85	64.5039	1,568.85	64.8837	1,568.85	63.2175	1,568.85	63.1424	1,568.85	60.351	1,568.85	62.33	1,568.85	64.8289	1,568.85	67.7026	1,568.85	71.0071	1,568.85	70.4494
1,624.51	77.4058	1,624.51	76.8805	1,624.51	78.2838	1,624.51	75.8716	1,624.51	77.0035	1,624.51	75.1361	1,624.51	76.4389	1,624.51	73.4113	1,624.51	76.1895	1,624.51	71.6621	1,624.51	75.7269	1,624.51	70.5201	1,624.51	73.0731	1,624.51	63.9087	1,624.51	70.8273	1,624.51	63.777	1,624.51	71.5519	1,624.51	62.9321	1,624.51	69.814	1,624.51	56.7748	1,624.51	67.9601	1,624.51	54.0008	1,624.51	61.2463	1,624.51	62.4979	1,624.51	57.4999	1,624.51	67.5148	1,624.51	67.5673	1,624.51	68.3261	1,624.51	66.3973	1,624.51	66.5687	1,624.51	61.8655	1,624.51	59.2899	1,624.51	61.4069	1,624.51	66.7227	1,624.51	68.6584	1,624.51	68.4038
1,681.64	78.4257	1,681.64	77.9236	1,681.64	77.3702	1,681.64	77.4646	1,681.64	76.9898	1,681.64	76.1251	1,681.64	76.7847	1,681.64	76.1901	1,681.64	75.4515	1,681.64	74.8063	1,681.64	75.2509	1,681.64	71.2478	1,681.64	73.8414	1,681.64	69.6886	1,681.64	74.1879	1,681.64	65.9052	1,681.64	72.6888	1,681.64	64.7383	1,681.64	68.4001	1,681.64	60.2567	1,681.64	67.7326	1,681.64	56.0399	1,681.64	62.735	1,681.64	62.207	1,681.64	65.8626	1,681.64	64.7732	1,681.64	63.9522	1,681.64	66.6283	1,681.64	62.3655	1,681.64	65.3375	1,681.64	54.6442	1,681.64	54.1912	1,681.64	54.3772	1,681.64	58.3555	1,681.64	63.7493	1,681.64	63.952
1,741.7	79.0129	1,741.7	79.8561	1,741.7	79.158	1,741.7	79.1123	1,741.7	77.7969	1,741.7	77.9521	1,741.7	76.5551	1,741.7	76.8664	1,741.7	74.696	1,741.7	75.4204	1,741.7	74.3085	1,741.7	72.419	1,741.7	74.0689	1,741.7	71.884	1,741.7	73.0853	1,741.7	68.6233	1,741.7	69.0382	1,741.7	67.27	1,741.7	65.8286	1,741.7	59.0871	1,741.7	65.5621	1,741.7	65.8746	1,741.7	67.5703	1,741.7	66.6118	1,741.7	65.6765	1,741.7	66.1423	1,741.7	62.1356	1,741.7	64.1852	1,741.7	67.0501	1,741.7	62.7631	1,741.7	55.9436	1,741.7	62.0829	1,741.7	65.0054	1,741.7	66.7904	1,741.7	67.246	1,741.7	69.0575
1,803.22	79.123	1,803.22	79.2972	1,803.22	78.6746	1,803.22	78.85	1,803.22	78.0587	1,803.22	77.5476	1,803.22	76.4991	1,803.22	75.9151	1,803.22	74.8009	1,803.22	74.1171	1,803.22	73.5759	1,803.22	73.1804	1,803.22	72.449	1,803.22	71.0392	1,803.22	71.602	1,803.22	70.2616	1,803.22	68.9116	1,803.22	68.9515	1,803.22	68.3837	1,803.22	64.529	1,803.22	65.7689	1,803.22	59.7617	1,803.22	63.3958	1,803.22	62.2019	1,803.22	65.4101	1,803.22	65.11	1,803.22	64.9574	1,803.22	64.5627	1,803.22	63.6992	1,803.22	63.6088	1,803.22	50.0176	1,803.22	58.1603	1,803.22	64.1928	1,803.22	67.4869	1,803.22	67.6076	1,803.22	70.256
1,866.21	79.6816	1,866.21	79.585	1,866.21	78.8467	1,866.21	79.219	1,866.21	78.0645	1,866.21	78.1815	1,866.21	77.0355	1,866.21	76.6198	1,866.21	75.5071	1,866.21	75.2741	1,866.21	73.9577	1,866.21	73.4005	1,866.21	71.9924	1,866.21	72.2536	1,866.21	70.5169	1,866.21	70.3222	1,866.21	70.7325	1,866.21	69.7842	1,866.21	67.6483	1,866.21	66.9432	1,866.21	67.3827	1,866.21	65.4231	1,866.21	66.3789	1,866.21	66.5583	1,866.21	65.2355	1,866.21	66.1916	1,866.21	67.4043	1,866.21	65.3898	1,866.21	64.6604	1,866.21	59.2365	1,866.21	58.4271	1,866.21	60.4784	1,866.21	60.2417	1,866.21	65.534	1,866.21	69.1355	1,866.21	67.4487
1,932.13	79.7412	1,932.13	80.6083	1,932.13	79.8023	1,932.13	79.7653	1,932.13	79.0951	1,932.13	78.4771	1,932.13	77.661	1,932.13	76.7005	1,932.13	76.6123	1,932.13	74.9038	1,932.13	75.0083	1,932.13	75.4706	1,932.13	73.5917	1,932.13	73.6654	1,932.13	71.1072	1,932.13	73.4362	1,932.13	71.0888	1,932.13	70.9411	1,932.13	70.9411	1,932.13	69.1636	1,932.13	69.8878	1,932.13	65.5782	1,932.13	64.5172	1,932.13	65.458	1,932.13	68.5536	1,932.13	67.4576	1,932.13	67.4147	1,932.13	67.9159	1,932.13	66.2834	1,932.13	66.3788	1,932.13	61.3606	1,932.13	60.4672	1,932.13	62.861	1,932.13	67.6946	1,932.13	68.087	1,932.13	69.9125
1,999.51	80.9372	1,999.51	80.5967	1,999.51	80.4592	1,999.51	80.0261	1,999.51	80.1306	1,999.51	79.3293	1,999.51	79.2256	1,999.51	78.3616	1,999.51	78.6413	1,999.51	76.8807	1,999.51	76.5211	1,999.51	74.4812	1,999.51	75.7021	1,999.51	73.4006	1,999.51	72.6754	1,999.51	70.7938	1,999.51	72.2778	1,999.51	70.6852	1,999.51	72.0497	1,999.51	69.462	1,999.51	70.279	1,999.51	68.7085	1,999.51	68.4732	1,999.51	69.2392	1,999.51	68.1869	1,999.51	66.4488	1,999.51	68.6021	1,999.51	66.8731	1,999.51	68.7429	1,999.51	63.5336	1,999.51	66.3712	1,999.51	62.4941	1,999.51	64.408	1,999.51	69.0711	1,999.51	69.6492	1,999.51	70.4326
2,069.82	81.358	2,069.82	80.8919	2,069.82	81.1676	2,069.82	80.4917	2,069.82	80.6133	2,069.82	79.6089	2,069.82	79.9879	2,069.82	78.7258	2,069.82	78.578	2,069.82	77.5734	2,069.82	77.5882	2,069.82	76.8219	2,069.82	76.4625	2,069.82	74.2296	2,069.82	75.0279	2,069.82	73.1334	2,069.82	72.8238	2,069.82	71.5665	2,069.82	73.4692	2,069.82	70.1572	2,069.82	71.8873	2,069.82	68.5066	2,069.82	68.4352	2,069.82	65.5757	2,069.82	67.9283	2,069.82	67.1742	2,069.82	69.4825	2,069.82	67.8791	2,069.82	69.6174	2,069.82	66.8383	2,069.82	65.8332	2,069.82	59.4119	2,069.82	64.2116	2,069.82	66.7689	2,069.82	68.4815	2,069.82	69.2855
2,143.07	81.4612	2,143.07	81.5535	2,143.07	81.2233	2,143.07	80.9946	2,143.07	80.7348	2,143.07	80.1853	2,143.07	80.3292	2,143.07	79.2253	2,143.07	79.1884	2,143.07	78.0667	2,143.07	78.2025	2,143.07	77.2456	2,143.07	77.2515	2,143.07	75.3073	2,143.07	75.567	2,143.07	74.2681	2,143.07	73.8914	2,143.07	72.2248	2,143.07	72.5456	2,143.07	71.5984	2,143.07	70.52	2,143.07	70.8022	2,143.07	69.1379	2,143.07	69.0162	2,143.07	68.1664	2,143.07	67.2023	2,143.07	68.9668	2,143.07	68.983	2,143.07	69.9408	2,143.07	67.9383	2,143.07	68.5434	2,143.07	63.3795	2,143.07	65.7294	2,143.07	64.9183	2,143.07	69.5661	2,143.07	69.7243
2,219.24	81.3538	2,219.24	81.1036	2,219.24	80.8975	2,219.24	80.8269	2,219.24	80.5336	2,219.24	80.5763	2,219.24	79.6745	2,219.24	79.7346	2,219.24	79.0438	2,219.24	78.9648	2,219.24	77.8163	2,219.24	78.0369	2,219.24	76.7058	2,219.24	76.4736	2,219.24	75.1178	2,219.24	74.0396	2,219.24	73.1529	2,219.24	73.0141	2,219.24	72.4548	2,219.24	72.6524	2,219.24	71.1047	2,219.24	71.3445	2,219.24	69.1539	2,219.24	69.8546	2,219.24	66.7195	2,219.24	68.2646	2,219.24	67.7035	2,219.24	69.2952	2,219.24	69.7835	2,219.24	69.6413	2,219.24	67.6959	2,219.24	67.4996	2,219.24	62.0893	2,219.24	66.9056	2,219.24	68.09	2,219.24	70.2965
2,296.88	80.6033	2,296.88	79.9626	2,296.88	80.1995	2,296.88	79.8381	2,296.88	79.3418	2,296.88	79.4001	2,296.88	79.2334	2,296.88	79.6235	2,296.88	77.8922	2,296.88	78.95	2,296.88	77.2766	2,296.88	77.6569	2,296.88	76.4241	2,296.88	77.1036	2,296.88	75.5415	2,296.88	76.4147	2,296.88	72.8413	2,296.88	73.6857	2,296.88	72.0586	2,296.88	72.9142	2,296.88	70.7075	2,296.88	71.1019	2,296.88	68.8461	2,296.88	69.7991	2,296.88	68.4158	2,296.88	70.2811	2,296.88	67.268	2,296.88	69.205	2,296.88	69.6554	2,296.88	70.2029	2,296.88	67.7526	2,296.88	66.4309	2,296.88	62.8698	2,296.88	66.7925	2,296.88	66.7859	2,296.88	68.1784
2,378.91	80.3647	2,378.91	80.1342	2,378.91	79.909	2,378.91	79.4857	2,378.91	79.981	2,378.91	79.7657	2,378.91	79.8516	2,378.91	79.6423	2,378.91	79.5052	2,378.91	78.5853	2,378.91	78.9073	2,378.91	77.4087	2,378.91	78.0561	2,378.91	76.7038	2,378.91	76.535	2,378.91	74.836	2,378.91	75.1214	2,378.91	73.7697	2,378.91	72.9082	2,378.91	72.3799	2,378.91	72.0066	2,378.91	70.5117	2,378.91	70.9877	2,378.91	70.6917	2,378.91	69.8623	2,378.91	69.4094	2,378.91	69.5245	2,378.91	69.6183	2,378.91	69.4743	2,378.91	68.6281	2,378.91	70.7181	2,378.91	66.7717	2,378.91	66.0858	2,378.91	67.6672	2,378.91	67.4161	2,378.91	70.9022
2,462.4	81.927	2,462.4	81.6901	2,462.4	81.9967	2,462.4	81.6158	2,462.4	82.0893	2,462.4	81.2983	2,462.4	81.9467	2,462.4	80.7218	2,462.4	81.5125	2,462.4	80.3151	2,462.4	81.1173	2,462.4	79.1559	2,462.4	80.3643	2,462.4	77.4726	2,462.4	79.1343	2,462.4	76.5518	2,462.4	77.8907	2,462.4	74.55	2,462.4	74.7441	2,462.4	73.73	2,462.4	74.4152	2,462.4	71.6793	2,462.4	72.7029	2,462.4	69.3929	2,462.4	72.4452	2,462.4	70.354	2,462.4	72.3258	2,462.4	69.7549	2,462.4	71.45	2,462.4	69.9155	2,462.4	70.9698	2,462.4	67.6022	2,462.4	68.3875	2,462.4	67.2666	2,462.4	70.6037	2,462.4	71.8094
2,548.83	82.9935	2,548.83	83.1123	2,548.83	83.631	2,548.83	83.3079	2,548.83	83.1669	2,548.83	82.9087	2,548.83	83.2951	2,548.83	82.5864	2,548.83	82.8105	2,548.83	82.8607	2,548.83	82.1437	2,548.83	81.9367	2,548.83	80.5394	2,548.83	80.0148	2,548.83	80.0669	2,548.83	79.4056	2,548.83	78.2933	2,548.83	76.2566	2,548.83	76.3241	2,548.83	74.8736	2,548.83	75.5011	2,548.83	73.9564	2,548.83	73.1746	2,548.83	71.3807	2,548.83	72.1224	2,548.83	71.4801	2,548.83	72.7266	2,548.83	71.23	2,548.83	71.572	2,548.83	71.9946	2,548.83	71.8447	2,548.83	69.0481	2,548.83	67.8178	2,548.83	67.1286	2,548.83	71.1375	2,548.83	72.3129
2,639.65	82.9218	2,639.65	83.4624	2,639.65	82.8725	2,639.65	82.9388	2,639.65	83.365	2,639.65	83.7312	2,639.65	82.8365	2,639.65	82.9925	2,639.65	82.8839	2,639.65	82.9551	2,639.65	82.0841	2,639.65	82.475	2,639.65	80.4999	2,639.65	81.1728	2,639.65	79.3493	2,639.65	79.1233	2,639.65	77.5423	2,639.65	77.6234	2,639.65	75.9963	2,639.65	75.5373	2,639.65	73.5118	2,639.65	73.35	2,639.65	73.1884	2,639.65	73.243	2,639.65	72.6521	2,639.65	72.8409	2,639.65	71.6885	2,639.65	72.3837	2,639.65	72.3714	2,639.65	74.5979	2,639.65	72.4957	2,639.65	71.105	2,639.65	67.1074	2,639.65	69.1158	2,639.65	68.6022	2,639.65	71.9185
2,731.93	82.0852	2,731.93	82.1924	2,731.93	81.3901	2,731.93	82.5895	2,731.93	82.6724	2,731.93	83.0608	2,731.93	82.4579	2,731.93	82.6284	2,731.93	82.4169	2,731.93	81.412	2,731.93	81.1852	2,731.93	81.151	2,731.93	80.4077	2,731.93	80.3348	2,731.93	78.5045	2,731.93	77.2909	2,731.93	77.1233	2,731.93	76.5508	2,731.93	75.4114	2,731.93	73.8078	2,731.93	74.1951	2,731.93	73.793	2,731.93	72.9942	2,731.93	71.9407	2,731.93	69.4084	2,731.93	71.2819	2,731.93	71.7897	2,731.93	71.6957	2,731.93	72.3803	2,731.93	71.0771	2,731.93	71.867	2,731.93	68.5807	2,731.93	69.1638	2,731.93	64.4146	2,731.93	68.3987	2,731.93	68.4771
2,828.61	80.6694	2,828.61	80.6701	2,828.61	81.8982	2,828.61	82.0857	2,828.61	81.9357	2,828.61	82.0829	2,828.61	83.0005	2,828.61	82.6937	2,828.61	82.7055	2,828.61	82.1795	2,828.61	82.0522	2,828.61	80.4479	2,828.61	80.7264	2,828.61	78.6042	2,828.61	78.989	2,828.61	77.1167	2,828.61	77.5638	2,828.61	75.2619	2,828.61	76.1497	2,828.61	74.0969	2,828.61	74.4803	2,828.61	73.3132	2,828.61	71.2341	2,828.61	71.3688	2,828.61	70.3708	2,828.61	70.191	2,828.61	71.3626	2,828.61	71.8639	2,828.61	70.7533	2,828.61	71.3513	2,828.61	71.5993	2,828.61	69.2552	2,828.61	67.7149	2,828.61	65.814	2,828.61	67.2508	2,828.61	71.9502
2,928.22	81.6295	2,928.22	81.8496	2,928.22	82.6206	2,928.22	82.6909	2,928.22	82.8549	2,928.22	83.0994	2,928.22	83.9974	2,928.22	83.4354	2,928.22	83.6906	2,928.22	83.2129	2,928.22	83.0274	2,928.22	81.1651	2,928.22	81.6285	2,928.22	79.5724	2,928.22	79.6908	2,928.22	78.8736	2,928.22	77.5473	2,928.22	76.461	2,928.22	76.1133	2,928.22	74.2386	2,928.22	73.365	2,928.22	73.9188	2,928.22	72.4814	2,928.22	71.5025	2,928.22	71.2299	2,928.22	70.3516	2,928.22	71.1432	2,928.22	71.2985	2,928.22	71.8058	2,928.22	71.6349	2,928.22	72.2265	2,928.22	68.5661	2,928.22	68.4383	2,928.22	65.1063	2,928.22	69.9738	2,928.22	70.3068
3,030.76	82.3738	3,030.76	82.6864	3,030.76	83.388	3,030.76	83.2192	3,030.76	83.926	3,030.76	83.9438	3,030.76	84.3389	3,030.76	84.0046	3,030.76	84.2529	3,030.76	83.816	3,030.76	83.1103	3,030.76	82.1579	3,030.76	81.34	3,030.76	80.8848	3,030.76	79.7053	3,030.76	79.3722	3,030.76	77.335	3,030.76	76.4991	3,030.76	75.9304	3,030.76	75.1705	3,030.76	73.3901	3,030.76	73.0571	3,030.76	73.0085	3,030.76	73.4288	3,030.76	72.636	3,030.76	71.6227	3,030.76	71.8038	3,030.76	72.2057	3,030.76	71.8009	3,030.76	73.5451	3,030.76	72.004	3,030.76	71.4997	3,030.76	69.3831	3,030.76	70.294	3,030.76	68.0662	3,030.76	72.0816
3,137.7	82.3326	3,137.7	82.8845	3,137.7	82.2317	3,137.7	83.7081	3,137.7	83.734	3,137.7	84.2477	3,137.7	83.5645	3,137.7	84.2588	3,137.7	83.4531	3,137.7	83.2097	3,137.7	82.0944	3,137.7	82.0808	3,137.7	80.567	3,137.7	80.7337	3,137.7	78.3895	3,137.7	77.6833	3,137.7	76.5414	3,137.7	76.5755	3,137.7	75.785	3,137.7	73.973	3,137.7	73.0711	3,137.7	72.2623	3,137.7	71.7192	3,137.7	71.4043	3,137.7	69.7257	3,137.7	70.4383	3,137.7	71.7728	3,137.7	71.5955	3,137.7	70.9822	3,137.7	72.3714	3,137.7	71.6122	3,137.7	71.3378	3,137.7	69.4622	3,137.7	66.1159	3,137.7	67.3504	3,137.7	71.3402
3,249.02	81.4386	3,249.02	81.4918	3,249.02	82.2138	3,249.02	82.5422	3,249.02	82.6664	3,249.02	83.5601	3,249.02	83.1289	3,249.02	83.2922	3,249.02	82.8142	3,249.02	82.1751	3,249.02	81.7345	3,249.02	81.3703	3,249.02	80.1298	3,249.02	79.2059	3,249.02	77.474	3,249.02	77.1995	3,249.02	76.1936	3,249.02	75.0806	3,249.02	74.8749	3,249.02	74.4836	3,249.02	73.1372	3,249.02	70.9565	3,249.02	70.6924	3,249.02	70.9921	3,249.02	70.2705	3,249.02	68.8617	3,249.02	70.0132	3,249.02	70.5703	3,249.02	71.7243	3,249.02	72.0701	3,249.02	71.3951	3,249.02	70.4961	3,249.02	68.7563	3,249.02	62.9096	3,249.02	67.5931	3,249.02	67.737
3,363.28	80.9267	3,363.28	81.1012	3,363.28	81.5967	3,363.28	82.2115	3,363.28	83.1457	3,363.28	83.2802	3,363.28	83.7403	3,363.28	83.4307	3,363.28	83.1001	3,363.28	81.7544	3,363.28	81.8591	3,363.28	80.5708	3,363.28	80.5749	3,363.28	78.2403	3,363.28	78.6495	3,363.28	76.5262	3,363.28	75.9738	3,363.28	75.0842	3,363.28	73.7291	3,363.28	73.6645	3,363.28	72.899	3,363.28	71.2269	3,363.28	71.1077	3,363.28	70.3785	3,363.28	71.2573	3,363.28	70.4215	3,363.28	69.4148	3,363.28	69.3846	3,363.28	70.4212	3,363.28	70.1471	3,363.28	71.8963	3,363.28	69.8334	3,363.28	68.6548	3,363.28	63.9108	3,363.28	64.2486	3,363.28	67.3396
3,481.93	81.1195	3,481.93	81.0961	3,481.93	83.197	3,481.93	82.8696	3,481.93	83.4037	3,481.93	84.3546	3,481.93	84.1763	3,481.93	83.5518	3,481.93	83.6297	3,481.93	83.2175	3,481.93	83.1498	3,481.93	81.2158	3,481.93	80.7879	3,481.93	78.9783	3,481.93	78.5715	3,481.93	76.9747	3,481.93	76.7355	3,481.93	75.2214	3,481.93	73.9206	3,481.93	72.4536	3,481.93	72.2366	3,481.93	71.0651	3,481.93	69.9992	3,481.93	70.4041	3,481.93	70.1846	3,481.93	71.2904	3,481.93	70.5816	3,481.93	71.423	3,481.93	71.0553	3,481.93	70.7622	3,481.93	71.572	3,481.93	71.2267	3,481.93	69.498	3,481.93	65.2841	3,481.93	64.1689	3,481.93	69.3674
3,604.98	80.761	3,604.98	81.7673	3,604.98	81.9749	3,604.98	83.1045	3,604.98	84.0209	3,604.98	84.4177	3,604.98	84.5456	3,604.98	84.6073	3,604.98	84.0819	3,604.98	83.9584	3,604.98	82.6663	3,604.98	81.8862	3,604.98	80.944	3,604.98	79.7634	3,604.98	78.8697	3,604.98	77.6833	3,604.98	77.9345	3,604.98	76.0321	3,604.98	75.0892	3,604.98	73.8843	3,604.98	72.5126	3,604.98	71.6479	3,604.98	70.1027	3,604.98	68.5057	3,604.98	67.8335	3,604.98	70.2926	3,604.98	70.3819	3,604.98	71.5456	3,604.98	72.1565	3,604.98	71.1125	3,604.98	71.9379	3,604.98	72.903	3,604.98	71.1946	3,604.98	64.733	3,604.98	62.9367	3,604.98	69.6991
3,732.42	82.207	3,732.42	82.8352	3,732.42	82.8118	3,732.42	84.0398	3,732.42	85.0143	3,732.42	84.3715	3,732.42	85.2671	3,732.42	84.5611	3,732.42	84.97	3,732.42	83.557	3,732.42	83.3455	3,732.42	81.9524	3,732.42	81.2743	3,732.42	80.1963	3,732.42	79.9103	3,732.42	78.2653	3,732.42	77.0762	3,732.42	76.6797	3,732.42	74.7839	3,732.42	72.6581	3,732.42	72.8259	3,732.42	72.1873	3,732.42	71.2674	3,732.42	69.0858	3,732.42	69.8342	3,732.42	67.2207	3,732.42	70.0586	3,732.42	70.2386	3,732.42	72.387	3,732.42	71.4989	3,732.42	72.6452	3,732.42	73.092	3,732.42	72.0552	3,732.42	63.5598	3,732.42	65.052	3,732.42	68.5279
3,864.26	82.6522	3,864.26	83.5582	3,864.26	83.3519	3,864.26	84.6869	3,864.26	84.456	3,864.26	85.1146	3,864.26	84.8737	3,864.26	85.2512	3,864.26	83.9752	3,864.26	83.4809	3,864.26	82.1037	3,864.26	82.1381	3,864.26	81.0208	3,864.26	80.5186	3,864.26	79.4604	3,864.26	78.5155	3,864.26	77.3428	3,864.26	76.7613	3,864.26	74.8395	3,864.26	73.9221	3,864.26	72.3988	3,864.26	73.0295	3,864.26	70.8547	3,864.26	71.095	3,864.26	66.3582	3,864.26	69.8902	3,864.26	66.8402	3,864.26	69.708	3,864.26	70.9586	3,864.26	69.7567	3,864.26	70.9401	3,864.26	71.8582	3,864.26	71.1345	3,864.26	64.4781	3,864.26	63.2121	3,864.26	67.4434
4,000.49	82.6572	4,000.49	82.4702	4,000.49	83.672	4,000.49	83.175	4,000.49	83.6203	4,000.49	83.9926	4,000.49	83.5294	4,000.49	83.3628	4,000.49	82.9577	4,000.49	82.0369	4,000.49	81.2405	4,000.49	80.3616	4,000.49	80.2404	4,000.49	79.2285	4,000.49	78.8391	4,000.49	77.0612	4,000.49	75.7413	4,000.49	74.7361	4,000.49	73.7381	4,000.49	73.2297	4,000.49	72.3136	4,000.49	71.9498	4,000.49	70.3927	4,000.49	70.3809	4,000.49	68.5995	4,000.49	69.4738	4,000.49	67.1563	4,000.49	68.4672	4,000.49	69.6166	4,000.49	69.8681	4,000.49	67.7361	4,000.49	71.0015	4,000.49	71.0109	4,000.49	65.0388	4,000.49	60.9954	4,000.49	68.1663
4,141.11	83.2276	4,141.11	82.699	4,141.11	84.1107	4,141.11	83.6657	4,141.11	84.1013	4,141.11	83.9822	4,141.11	83.7679	4,141.11	82.9562	4,141.11	83.4643	4,141.11	82.647	4,141.11	82.3678	4,141.11	81.1979	4,141.11	80.7431	4,141.11	80.0591	4,141.11	79.008	4,141.11	78.4003	4,141.11	76.9301	4,141.11	75.2394	4,141.11	75.8265	4,141.11	73.3385	4,141.11	72.8356	4,141.11	70.8296	4,141.11	70.8575	4,141.11	70.1303	4,141.11	68.7751	4,141.11	69.0999	4,141.11	65.9214	4,141.11	67.1154	4,141.11	69.7864	4,141.11	69.9211	4,141.11	68.8583	4,141.11	70.8419	4,141.11	70.715	4,141.11	64.3487	4,141.11	62.939	4,141.11	68.4912
4,287.6	83.4583	4,287.6	84.0741	4,287.6	83.3895	4,287.6	83.4145	4,287.6	84.3105	4,287.6	83.7315	4,287.6	83.9639	4,287.6	83.842	4,287.6	83.7561	4,287.6	83.0876	4,287.6	82.6946	4,287.6	81.9745	4,287.6	80.7466	4,287.6	80.3864	4,287.6	78.8838	4,287.6	77.9651	4,287.6	76.449	4,287.6	75.887	4,287.6	75.2097	4,287.6	74.3595	4,287.6	72.7596	4,287.6	72.5492	4,287.6	71.0878	4,287.6	69.9204	4,287.6	70.076	4,287.6	70.6592	4,287.6	67.9496	4,287.6	68.004	4,287.6	67.9827	4,287.6	68.8963	4,287.6	68.5068	4,287.6	70.7791	4,287.6	69.8031	4,287.6	64.8933	4,287.6	62.9117	4,287.6	68.8621
4,438.48	84.302	4,438.48	84.1041	4,438.48	84.371	4,438.48	83.8638	4,438.48	83.6969	4,438.48	83.8152	4,438.48	84.2968	4,438.48	84.0012	4,438.48	82.8558	4,438.48	83.2629	4,438.48	81.9389	4,438.48	81.7737	4,438.48	80.9575	4,438.48	79.7403	4,438.48	79.0295	4,438.48	77.9221	4,438.48	77.5191	4,438.48	75.9905	4,438.48	74.7826	4,438.48	75.1282	4,438.48	73.0585	4,438.48	70.8875	4,438.48	70.0848	4,438.48	69.0168	4,438.48	69.0145	4,438.48	69.0651	4,438.48	67.918	4,438.48	66.6267	4,438.48	68.2751	4,438.48	68.7762	4,438.48	68.2491	4,438.48	69.7724	4,438.48	69.9125	4,438.48	62.4556	4,438.48	60.1384	4,438.48	66.1696
4,595.21	84.0049	4,595.21	83.5419	4,595.21	83.1747	4,595.21	83.6473	4,595.21	82.3948	4,595.21	82.7495	4,595.21	81.8339	4,595.21	82.4808	4,595.21	81.9979	4,595.21	81.916	4,595.21	81.1944	4,595.21	81.2783	4,595.21	80.0438	4,595.21	80.3057	4,595.21	78.1878	4,595.21	77.8837	4,595.21	75.5118	4,595.21	74.4432	4,595.21	73.9259	4,595.21	71.7817	4,595.21	71.8326	4,595.21	70.0698	4,595.21	69.2393	4,595.21	67.7893	4,595.21	67.1544	4,595.21	67.1332	4,595.21	67.8607	4,595.21	66.0375	4,595.21	66.433	4,595.21	69.2659	4,595.21	67.2211	4,595.21	67.9275	4,595.21	69.1264	4,595.21	65.3632	4,595.21	58.0096	4,595.21	66.9089
4,756.35	83.0019	4,756.35	82.8033	4,756.35	82.0632	4,756.35	80.4135	4,756.35	81.695	4,756.35	80.6885	4,756.35	80.7851	4,756.35	80.6022	4,756.35	81.5066	4,756.35	80.2945	4,756.35	81.5943	4,756.35	80.0458	4,756.35	79.6772	4,756.35	79.0786	4,756.35	77.255	4,756.35	75.2104	4,756.35	75.8716	4,756.35	74.0209	4,756.35	72.5657	4,756.35	70.7928	4,756.35	70.2844	4,756.35	71.5238	4,756.35	68.9746	4,756.35	67.8817	4,756.35	66.83	4,756.35	66.9581	4,756.35	67.948	4,756.35	65.446	4,756.35	65.4385	4,756.35	67.5714	4,756.35	67.0504	4,756.35	66.3046	4,756.35	66.8484	4,756.35	64.7282	4,756.35	57.8279	4,756.35	66.7151
4,924.8	83.0992	4,924.8	82.5932	4,924.8	82.4467	4,924.8	81.681	4,924.8	80.5997	4,924.8	80.9731	4,924.8	80.9695	4,924.8	81.8675	4,924.8	80.8588	4,924.8	81.6878	4,924.8	79.9191	4,924.8	79.9941	4,924.8	79.2192	4,924.8	77.1616	4,924.8	77.0831	4,924.8	75.3183	4,924.8	73.6161	4,924.8	72.4189	4,924.8	72.0576	4,924.8	71.1518	4,924.8	69.7286	4,924.8	67.5411	4,924.8	68.2999	4,924.8	64.989	4,924.8	65.4618	4,924.8	65.2737	4,924.8	65.0995	4,924.8	63.4505	4,924.8	64.9261	4,924.8	66.4408	4,924.8	66.1555	4,924.8	63.9345	4,924.8	65.2063	4,924.8	63.6834	4,924.8	57.7817	4,924.8	62.8075
5,097.66	82.6603	5,097.66	82.1279	5,097.66	81.2183	5,097.66	81.0095	5,097.66	80.0137	5,097.66	80.573	5,097.66	80.0696	5,097.66	81.4364	5,097.66	80.6398	5,097.66	81.3404	5,097.66	80.1787	5,097.66	80.3202	5,097.66	78.1702	5,097.66	78.211	5,097.66	76.2574	5,097.66	76.3742	5,097.66	74.2389	5,097.66	73.5977	5,097.66	71.5265	5,097.66	71.4453	5,097.66	68.6416	5,097.66	69.9222	5,097.66	66.7688	5,097.66	67.301	5,097.66	65.788	5,097.66	66.5719	5,097.66	65.6493	5,097.66	63.0771	5,097.66	64.0683	5,097.66	67.3901	5,097.66	66.0695	5,097.66	65.4142	5,097.66	65.9014	5,097.66	64.0037	5,097.66	58.4528	5,097.66	63.7022
5,277.83	82.6042	5,277.83	82.2414	5,277.83	80.9834	5,277.83	80.0319	5,277.83	79.8965	5,277.83	79.7567	5,277.83	79.8382	5,277.83	80.0198	5,277.83	80.8652	5,277.83	79.8835	5,277.83	80.3136	5,277.83	78.6519	5,277.83	78.3352	5,277.83	76.4945	5,277.83	75.6992	5,277.83	73.3277	5,277.83	73.4969	5,277.83	71.6815	5,277.83	70.9615	5,277.83	66.4715	5,277.83	68.3362	5,277.83	66.3962	5,277.83	66.7898	5,277.83	65.367	5,277.83	64.1605	5,277.83	65.7199	5,277.83	62.7156	5,277.83	62.119	5,277.83	62.2824	5,277.83	64.6707	5,277.83	65.1587	5,277.83	62.0565	5,277.83	62.9882	5,277.83	62.5848	5,277.83	59.3158	5,277.83	60.8697
5,463.87	83.179	5,463.87	82.812	5,463.87	81.9996	5,463.87	80.9164	5,463.87	80.3518	5,463.87	80.037	5,463.87	80.9819	5,463.87	81.1167	5,463.87	81.0832	5,463.87	80.8905	5,463.87	79.9053	5,463.87	79.7522	5,463.87	78.6727	5,463.87	77.7712	5,463.87	76.3847	5,463.87	75.3813	5,463.87	72.8707	5,463.87	72.9387	5,463.87	70.9832	5,463.87	70.132	5,463.87	68.3855	5,463.87	67.9083	5,463.87	66.418	5,463.87	63.4813	5,463.87	64.9386	5,463.87	64.1481	5,463.87	63.3835	5,463.87	64.0455	5,463.87	62.5194	5,463.87	65.0021	5,463.87	65.1309	5,463.87	62.7155	5,463.87	62.9522	5,463.87	64.1243	5,463.87	58.3403	5,463.87	61.8798
5,657.23	83.0562	5,657.23	82.4989	5,657.23	81.6931	5,657.23	80.642	5,657.23	80.9365	5,657.23	80.4943	5,657.23	80.6541	5,657.23	80.9322	5,657.23	81.1064	5,657.23	80.0658	5,657.23	80.3057	5,657.23	78.2647	5,657.23	78.1334	5,657.23	75.4551	5,657.23	75.5856	5,657.23	74.2826	5,657.23	73.9992	5,657.23	70.7639	5,657.23	70.6591	5,657.23	69.9932	5,657.23	68.9072	5,657.23	67.212	5,657.23	66.0145	5,657.23	66.312	5,657.23	64.9643	5,657.23	65.066	5,657.23	62.8517	5,657.23	61.2319	5,657.23	62.2123	5,657.23	63.6825	5,657.23	65.7576	5,657.23	63.5069	5,657.23	63.6348	5,657.23	63.5245	5,657.23	60.4503	5,657.23	59.9174
5,856.45	82.6367	5,856.45	82.1434	5,856.45	81.76	5,856.45	80.8672	5,856.45	80.5494	5,856.45	80.6622	5,856.45	80.6266	5,856.45	81.0395	5,856.45	80.6774	5,856.45	80.4887	5,856.45	79.5745	5,856.45	79.0805	5,856.45	78.3243	5,856.45	77.9768	5,856.45	76.9478	5,856.45	74.829	5,856.45	73.5187	5,856.45	71.894	5,856.45	71.1191	5,856.45	68.2777	5,856.45	68.5503	5,856.45	65.741	5,856.45	66.964	5,856.45	62.7572	5,856.45	63.5538	5,856.45	61.8725	5,856.45	64.1912	5,856.45	60.6682	5,856.45	60.1442	5,856.45	62.7095	5,856.45	65.0134	5,856.45	61.762	5,856.45	63.043	5,856.45	62.6548	5,856.45	58.9296	5,856.45	58.3037
6,062.99	83.3908	6,062.99	82.9908	6,062.99	82.5522	6,062.99	81.9474	6,062.99	81.7897	6,062.99	81.1401	6,062.99	81.7869	6,062.99	81.3608	6,062.99	81.6673	6,062.99	80.137	6,062.99	80.2473	6,062.99	78.5818	6,062.99	79.1049	6,062.99	76.7342	6,062.99	76.9792	6,062.99	73.9799	6,062.99	74.4216	6,062.99	71.9082	6,062.99	72.0184	6,062.99	69.744	6,062.99	69.7374	6,062.99	67.2418	6,062.99	67.9514	6,062.99	66.331	6,062.99	65.0991	6,062.99	63.4737	6,062.99	64.2407	6,062.99	64.1932	6,062.99	63.3396	6,062.99	63.4656	6,062.99	66.2128	6,062.99	62.8085	6,062.99	62.0305	6,062.99	62.877	6,062.99	59.4582	6,062.99	59.3445
6,276.86	82.9143	6,276.86	82.5268	6,276.86	82.3358	6,276.86	81.8365	6,276.86	81.8648	6,276.86	81.3982	6,276.86	81.0256	6,276.86	81.3739	6,276.86	81.3733	6,276.86	80.5574	6,276.86	80.626	6,276.86	79.2938	6,276.86	79.1687	6,276.86	77.6098	6,276.86	77.1685	6,276.86	75.5064	6,276.86	74.7813	6,276.86	72.9426	6,276.86	72.1624	6,276.86	70.3667	6,276.86	69.2744	6,276.86	68.4844	6,276.86	67.7521	6,276.86	65.6544	6,276.86	65.3247	6,276.86	63.2633	6,276.86	64.4827	6,276.86	62.2171	6,276.86	63.6098	6,276.86	62.7567	6,276.86	65.4284	6,276.86	63.3104	6,276.86	62.6636	6,276.86	63.4734	6,276.86	58.2371	6,276.86	58.7698
6,498.05	82.8926	6,498.05	82.7615	6,498.05	83.0081	6,498.05	82.4001	6,498.05	82.0132	6,498.05	81.2844	6,498.05	81.2647	6,498.05	80.6092	6,498.05	80.6345	6,498.05	80.158	6,498.05	80.2103	6,498.05	79.2036	6,498.05	79.2608	6,498.05	77.6598	6,498.05	77.5246	6,498.05	75.2489	6,498.05	74.3275	6,498.05	72.364	6,498.05	71.9286	6,498.05	69.5813	6,498.05	68.8265	6,498.05	67.9289	6,498.05	66.7958	6,498.05	65.7047	6,498.05	64.5101	6,498.05	64.7367	6,498.05	62.0423	6,498.05	62.734	6,498.05	61.983	6,498.05	63.4012	6,498.05	64.9028	6,498.05	62.7282	6,498.05	62.5463	6,498.05	62.6951	6,498.05	59.7214	6,498.05	57.6393
6,726.56	83.1351	6,726.56	83.2053	6,726.56	83.2921	6,726.56	83.1148	6,726.56	82.7892	6,726.56	81.5662	6,726.56	81.1916	6,726.56	81.013	6,726.56	81.1673	6,726.56	80.4238	6,726.56	81.0643	6,726.56	80.2216	6,726.56	79.8652	6,726.56	78.7029	6,726.56	77.5489	6,726.56	75.9993	6,726.56	74.7864	6,726.56	72.943	6,726.56	71.9381	6,726.56	69.6041	6,726.56	68.9798	6,726.56	67.3216	6,726.56	66.7415	6,726.56	65.0853	6,726.56	65.873	6,726.56	63.7919	6,726.56	62.5068	6,726.56	62.2757	6,726.56	62.2054	6,726.56	62.3668	6,726.56	64.9642	6,726.56	63.8292	6,726.56	62.7289	6,726.56	63.7092	6,726.56	59.4885	6,726.56	57.2388
6,963.87	82.5275	6,963.87	82.9286	6,963.87	83.3041	6,963.87	82.841	6,963.87	82.361	6,963.87	81.1501	6,963.87	80.6913	6,963.87	80.4034	6,963.87	80.7948	6,963.87	80.6721	6,963.87	80.9667	6,963.87	79.953	6,963.87	79.6788	6,963.87	78.1361	6,963.87	77.3418	6,963.87	75.1	6,963.87	73.6221	6,963.87	72.0448	6,963.87	70.9977	6,963.87	68.7268	6,963.87	67.8956	6,963.87	67.2437	6,963.87	66.7019	6,963.87	65.7636	6,963.87	64.3541	6,963.87	63.7365	6,963.87	61.6953	6,963.87	61.3479	6,963.87	62.0583	6,963.87	62.3393	6,963.87	64.4847	6,963.87	64.6284	6,963.87	62.3334	6,963.87	61.6779	6,963.87	59.743	6,963.87	57.4826
7,209.96	83.6718	7,209.96	83.8629	7,209.96	84.0006	7,209.96	83.7591	7,209.96	82.9515	7,209.96	82.0091	7,209.96	81.3811	7,209.96	81.6464	7,209.96	81.6666	7,209.96	81.6632	7,209.96	81.3197	7,209.96	80.6837	7,209.96	79.8208	7,209.96	78.3512	7,209.96	77.0634	7,209.96	75.1988	7,209.96	73.7291	7,209.96	71.9724	7,209.96	70.9706	7,209.96	68.4676	7,209.96	67.8139	7,209.96	66.0147	7,209.96	65.9145	7,209.96	63.2358	7,209.96	63.1199	7,209.96	61.8601	7,209.96	63.0101	7,209.96	60.8485	7,209.96	61.7412	7,209.96	60.943	7,209.96	63.1214	7,209.96	64.3102	7,209.96	62.5513	7,209.96	62.4952	7,209.96	57.9018	7,209.96	57.0313
7,464.84	84.0425	7,464.84	84.1885	7,464.84	84.2853	7,464.84	83.6608	7,464.84	83.1444	7,464.84	81.8626	7,464.84	81.7547	7,464.84	81.5434	7,464.84	82.1887	7,464.84	81.2565	7,464.84	81.7163	7,464.84	79.9527	7,464.84	79.6	7,464.84	77.4282	7,464.84	76.7055	7,464.84	74.1542	7,464.84	73.1095	7,464.84	71.1585	7,464.84	70.5888	7,464.84	68.3723	7,464.84	67.9677	7,464.84	65.5166	7,464.84	65.26	7,464.84	63.5905	7,464.84	63.2713	7,464.84	60.913	7,464.84	63.7879	7,464.84	61.8603	7,464.84	61.5071	7,464.84	61.1693	7,464.84	62.8607	7,464.84	64.5537	7,464.84	62.6363	7,464.84	60.1354	7,464.84	58.2399	7,464.84	56.3752
7,727.05	83.8456	7,727.05	83.9949	7,727.05	84.2715	7,727.05	83.7256	7,727.05	83.108	7,727.05	82.056	7,727.05	81.7408	7,727.05	82.0544	7,727.05	82.0126	7,727.05	81.9563	7,727.05	81.1625	7,727.05	80.3286	7,727.05	79.0502	7,727.05	77.8809	7,727.05	76.4199	7,727.05	75.366	7,727.05	73.6024	7,727.05	72.3568	7,727.05	70.5996	7,727.05	69.6705	7,727.05	67.8	7,727.05	67.6979	7,727.05	65.1086	7,727.05	63.9863	7,727.05	62.9363	7,727.05	60.7297	7,727.05	61.4961	7,727.05	61.1359	7,727.05	61.147	7,727.05	60.6248	7,727.05	61.5168	7,727.05	64.7733	7,727.05	62.646	7,727.05	61.0411	7,727.05	56.5246	7,727.05	56.712
7,999.51	84.4269	7,999.51	84.8183	7,999.51	84.8001	7,999.51	84.7327	7,999.51	83.8798	7,999.51	83.2713	7,999.51	82.3684	7,999.51	82.7946	7,999.51	82.3652	7,999.51	82.0915	7,999.51	81.1642	7,999.51	80.5668	7,999.51	79.4535	7,999.51	78.227	7,999.51	77.1026	7,999.51	75.7208	7,999.51	74.0302	7,999.51	71.9672	7,999.51	71.1075	7,999.51	69.5164	7,999.51	68.1885	7,999.51	66.5478	7,999.51	65.9053	7,999.51	64.2292	7,999.51	64.5575	7,999.51	61.4609	7,999.51	60.732	7,999.51	61.2023	7,999.51	60.78	7,999.51	60.6897	7,999.51	62.0487	7,999.51	64.4887	7,999.51	63.3262	7,999.51	60.5005	7,999.51	57.0047	7,999.51	56.2605
8,282.23	84.3196	8,282.23	84.6266	8,282.23	84.5549	8,282.23	84.5317	8,282.23	83.9516	8,282.23	83.2424	8,282.23	82.4066	8,282.23	82.4068	8,282.23	81.744	8,282.23	81.4795	8,282.23	80.7906	8,282.23	80.5093	8,282.23	79.5494	8,282.23	78.5753	8,282.23	77.4143	8,282.23	76.2108	8,282.23	74.3427	8,282.23	73.0624	8,282.23	71.5699	8,282.23	70.5857	8,282.23	68.3103	8,282.23	68.0102	8,282.23	66.0051	8,282.23	65.3841	8,282.23	64.6518	8,282.23	62.6786	8,282.23	59.2088	8,282.23	61.52	8,282.23	60.654	8,282.23	62.2051	8,282.23	61.3823	8,282.23	64.9873	8,282.23	62.419	8,282.23	60.031	8,282.23	58.0713	8,282.23	56.9917
8,573.73	84.6993	8,573.73	84.6375	8,573.73	84.7784	8,573.73	84.7287	8,573.73	84.5006	8,573.73	83.8871	8,573.73	83.0212	8,573.73	82.4892	8,573.73	81.9907	8,573.73	81.7489	8,573.73	81.4267	8,573.73	81.2275	8,573.73	80.6021	8,573.73	79.7559	8,573.73	78.4383	8,573.73	77.0351	8,573.73	75.2034	8,573.73	73.8525	8,573.73	72.1472	8,573.73	70.7187	8,573.73	68.8518	8,573.73	68.3957	8,573.73	66.7137	8,573.73	65.6477	8,573.73	64.4989	8,573.73	62.4804	8,573.73	61.142	8,573.73	61.8436	8,573.73	61.9183	8,573.73	62.2945	8,573.73	61.6026	8,573.73	64.3069	8,573.73	61.5172	8,573.73	60.7167	8,573.73	57.0683	8,573.73	57.077
8,876.95	84.5294	8,876.95	84.4111	8,876.95	84.2111	8,876.95	84.6065	8,876.95	84.5441	8,876.95	84.0211	8,876.95	82.8756	8,876.95	82.3686	8,876.95	81.3774	8,876.95	81.6228	8,876.95	81.349	8,876.95	81.4934	8,876.95	80.3239	8,876.95	79.702	8,876.95	77.7384	8,876.95	76.6538	8,876.95	74.3716	8,876.95	73.2225	8,876.95	71.4539	8,876.95	69.9174	8,876.95	68.0099	8,876.95	67.313	8,876.95	65.6493	8,876.95	64.9362	8,876.95	63.6906	8,876.95	62.7047	8,876.95	58.6848	8,876.95	61.1813	8,876.95	60.6693	8,876.95	62.2286	8,876.95	59.9954	8,876.95	64.0207	8,876.95	60.8913	8,876.95	57.0921	8,876.95	56.9811	8,876.95	55.1572
9,188.96	84.6453	9,188.96	84.3215	9,188.96	84.1772	9,188.96	84.7484	9,188.96	84.5822	9,188.96	84.3686	9,188.96	82.7828	9,188.96	82.4133	9,188.96	81.2826	9,188.96	81.6651	9,188.96	81.2787	9,188.96	81.2913	9,188.96	80.0076	9,188.96	78.9849	9,188.96	76.9031	9,188.96	75.8256	9,188.96	73.9158	9,188.96	72.2498	9,188.96	70.4047	9,188.96	69.3426	9,188.96	67.5112	9,188.96	67.1843	9,188.96	65.0808	9,188.96	63.4416	9,188.96	62.8874	9,188.96	62.9773	9,188.96	58.1875	9,188.96	60.2437	9,188.96	59.5762	9,188.96	61.3897	9,188.96	58.4327	9,188.96	63.8334	9,188.96	60.468	9,188.96	57.0723	9,188.96	55.1341	9,188.96	54.6596
9,514.16	84.4413	9,514.16	84.0637	9,514.16	83.8913	9,514.16	84.5812	9,514.16	84.3408	9,514.16	84.1923	9,514.16	82.411	9,514.16	82.3653	9,514.16	80.8554	9,514.16	81.5801	9,514.16	80.4806	9,514.16	81.0156	9,514.16	79.0784	9,514.16	78.7255	9,514.16	76.2274	9,514.16	75.7274	9,514.16	72.7668	9,514.16	72.0948	9,514.16	69.2849	9,514.16	69.0217	9,514.16	66.4626	9,514.16	66.6425	9,514.16	64.2497	9,514.16	62.9399	9,514.16	60.9128	9,514.16	61.9435	9,514.16	56.3611	9,514.16	59.7913	9,514.16	56.395	9,514.16	61.1452	9,514.16	56.4526	9,514.16	63.1388	9,514.16	60.803	9,514.16	54.4378	9,514.16	54.2088	9,514.16	53.9789
9,849.61	84.5881	9,849.61	84.2563	9,849.61	84.0958	9,849.61	84.6277	9,849.61	84.3825	9,849.61	84.2463	9,849.61	82.4343	9,849.61	82.5416	9,849.61	80.945	9,849.61	81.4948	9,849.61	80.0458	9,849.61	80.7212	9,849.61	78.6135	9,849.61	78.6751	9,849.61	76.3195	9,849.61	75.4937	9,849.61	72.5169	9,849.61	72.3338	9,849.61	69.1763	9,849.61	68.9183	9,849.61	65.9269	9,849.61	66.5152	9,849.61	63.8293	9,849.61	62.7655	9,849.61	60.4144	9,849.61	61.0426	9,849.61	56.5383	9,849.61	58.962	9,849.61	56.3129	9,849.61	60.2191	9,849.61	56.2365	9,849.61	62.0915	9,849.61	59.9559	9,849.61	54.9922	9,849.61	54.4692	9,849.61	54.6308
10,196.8	84.6691	10,196.8	84.4831	10,196.8	84.3679	10,196.8	84.441	10,196.8	84.1599	10,196.8	83.9304	10,196.8	82.6806	10,196.8	82.4944	10,196.8	80.9596	10,196.8	80.7585	10,196.8	79.5518	10,196.8	79.6988	10,196.8	78.1327	10,196.8	77.7976	10,196.8	75.7598	10,196.8	74.5682	10,196.8	71.8621	10,196.8	70.9232	10,196.8	68.3435	10,196.8	67.3995	10,196.8	65.2991	10,196.8	65.1225	10,196.8	62.7237	10,196.8	61.7063	10,196.8	58.745	10,196.8	60.4436	10,196.8	56.0874	10,196.8	58.0857	10,196.8	55.3427	10,196.8	58.6279	10,196.8	56.3559	10,196.8	60.5393	10,196.8	59.4448	10,196.8	54.6126	10,196.8	54.6342	10,196.8	52.7184
10,555.7	84.653	10,555.7	84.6846	10,555.7	84.5706	10,555.7	84.3199	10,555.7	83.8865	10,555.7	83.7622	10,555.7	82.625	10,555.7	82.2829	10,555.7	80.4138	10,555.7	79.8412	10,555.7	78.9073	10,555.7	78.8904	10,555.7	77.455	10,555.7	77.0715	10,555.7	74.4844	10,555.7	73.707	10,555.7	70.2672	10,555.7	69.7998	10,555.7	66.4117	10,555.7	66.6893	10,555.7	63.025	10,555.7	63.5132	10,555.7	60.5594	10,555.7	60.7037	10,555.7	57.7499	10,555.7	58.7942	10,555.7	56.4201	10,555.7	57.1938	10,555.7	54.69	10,555.7	57.719	10,555.7	55.5258	10,555.7	59.2887	10,555.7	58.3795	10,555.7	52.9139	10,555.7	52.2175	10,555.7	52.8403
10,927.7	84.5698	10,927.7	84.4072	10,927.7	84.6279	10,927.7	83.6434	10,927.7	83.6386	10,927.7	82.7412	10,927.7	82.6509	10,927.7	81.3084	10,927.7	80.2002	10,927.7	78.4595	10,927.7	78.7913	10,927.7	77.176	10,927.7	76.8468	10,927.7	75.0105	10,927.7	73.2485	10,927.7	71.5341	10,927.7	69.0066	10,927.7	66.9662	10,927.7	65.3796	10,927.7	63.936	10,927.7	62.1225	10,927.7	60.9424	10,927.7	59.0383	10,927.7	58.0702	10,927.7	56.0511	10,927.7	55.5576	10,927.7	56.6963	10,927.7	54.3539	10,927.7	53.7147	10,927.7	55.4187	10,927.7	54.2911	10,927.7	56.5984	10,927.7	55.9385	10,927.7	46.1285	10,927.7	51.1796	10,927.7	50.7956
11,313	83.6821	11,313	83.3883	11,313	83.7295	11,313	82.2777	11,313	82.8053	11,313	81.1268	11,313	81.9382	11,313	79.624	11,313	79.5107	11,313	76.6303	11,313	77.9038	11,313	75.0296	11,313	75.855	11,313	72.1619	11,313	72.3015	11,313	68.3768	11,313	68.459	11,313	63.5303	11,313	64.7003	11,313	61.0158	11,313	61.2203	11,313	57.768	11,313	58.4318	11,313	54.9689	11,313	56.199	11,313	54.2866	11,313	54.5913	11,313	48.9642	11,313	52.4528	11,313	51.7009	11,313	52.0357	11,313	52.2159	11,313	52.6531	11,313	43.4468	11,313	46.2605	11,313	51.0638
11,712.9	83.4028	11,712.9	82.908	11,712.9	83.2669	11,712.9	81.5374	11,712.9	82.254	11,712.9	80.0549	11,712.9	81.1024	11,712.9	78.2279	11,712.9	78.5109	11,712.9	75.1257	11,712.9	76.1114	11,712.9	72.093	11,712.9	73.8277	11,712.9	69.0383	11,712.9	70.7313	11,712.9	64.3495	11,712.9	66.3895	11,712.9	60.6969	11,712.9	62.3369	11,712.9	56.1412	11,712.9	58.1761	11,712.9	54.1274	11,712.9	55.5371	11,712.9	51.3239	11,712.9	53.7592	11,712.9	48.9093	11,712.9	51.8643	11,712.9	45.6217	11,712.9	50.6494	11,712.9	47.8266	11,712.9	50.7007	11,712.9	47.0235	11,712.9	50.5319	11,712.9	36.9103	11,712.9	39.9887	11,712.9	49.253
12,126	83.7794	12,126	83.3032	12,126	83.2894	12,126	81.7854	12,126	82.162	12,126	79.7482	12,126	80.4168	12,126	77.1628	12,126	77.5625	12,126	73.1245	12,126	74.0289	12,126	68.8208	12,126	70.558	12,126	64.5059	12,126	65.8184	12,126	58.4939	12,126	60.7951	12,126	53.4872	12,126	56.5158	12,126	46.4049	12,126	53.0396	12,126	46.5782	12,126	50.514	12,126	42.421	12,126	48.7077	12,126	36.2108	12,126	42.7866	12,126	37.5419	12,126	45.1274	12,126	42.4504	12,126	48.0088	12,126	35.7967	12,126	44.8168	12,126	29.8771	12,126	25.0165	12,126	42.3476
12,553.7	84.0206	12,553.7	83.6694	12,553.7	83.5287	12,553.7	82.1706	12,553.7	82.1227	12,553.7	79.9172	12,553.7	79.8649	12,553.7	76.3594	12,553.7	76.794	12,553.7	71.436	12,553.7	73.3243	12,553.7	64.2471	12,553.7	68.64	12,553.7	48.8342	12,553.7	63.3245	12,553.7	32.8213	12,553.7	57.2779	12,553.7	49.8607	12,553.7	52.6263	12,553.7	45.3219	12,553.7	51.7643	12,553.7	46.8165	12,553.7	47.7825	12,553.7	43.843	12,553.7	45.799	12,553.7	37.5222	12,553.7	17.6193	12,553.7	42.3214	12,553.7	36.8832	12,553.7	37.1939	12,553.7	39.8341	12,553.7	34.8611	12,553.7	43.0735	12,553.7	36.7239	12,553.7	34.4103	12,553.7	37.2833
12,996.1	84.1883	12,996.1	83.8012	12,996.1	83.7726	12,996.1	82.4577	12,996.1	82.084	12,996.1	80.0435	12,996.1	79.5799	12,996.1	75.9403	12,996.1	76.2945	12,996.1	70.6175	12,996.1	72.011	12,996.1	63.9228	12,996.1	67.7729	12,996.1	59.3891	12,996.1	63.6829	12,996.1	57.5192	12,996.1	58.0466	12,996.1	57.8021	12,996.1	54.1454	12,996.1	52.6682	12,996.1	50.6016	12,996.1	52.8624	12,996.1	48.7893	12,996.1	49.1995	12,996.1	46.1286	12,996.1	47.427	12,996.1	41.1646	12,996.1	46.0065	12,996.1	40.1721	12,996.1	41.1072	12,996.1	40.1856	12,996.1	38.2289	12,996.1	41.8996	12,996.1	35.7442	12,996.1	33.9549	12,996.1	39.8553
13,454.6	84.4739	13,454.6	83.7802	13,454.6	83.8495	13,454.6	82.4239	13,454.6	82.2216	13,454.6	79.9685	13,454.6	79.7213	13,454.6	75.9706	13,454.6	76.1005	13,454.6	70.2978	13,454.6	70.9357	13,454.6	66.9223	13,454.6	67.0123	13,454.6	63.7901	13,454.6	61.0261	13,454.6	60.7432	13,454.6	56.2461	13,454.6	59.1301	13,454.6	53.353	13,454.6	54.1867	13,454.6	50.0328	13,454.6	53.8589	13,454.6	47.7794	13,454.6	50.9545	13,454.6	46.3062	13,454.6	49.2255	13,454.6	43.6571	13,454.6	46.7736	13,454.6	43.1762	13,454.6	42.8792	13,454.6	39.8288	13,454.6	36.9546	13,454.6	40.8972	13,454.6	38.1567	13,454.6	36.424	13,454.6	44.2091
13,929.2	84.6259	13,929.2	83.7892	13,929.2	84.0474	13,929.2	82.3742	13,929.2	82.483	13,929.2	79.8636	13,929.2	79.9619	13,929.2	76.0424	13,929.2	75.7002	13,929.2	69.4428	13,929.2	71.0712	13,929.2	66.9281	13,929.2	66.5403	13,929.2	63.738	13,929.2	61.0471	13,929.2	61.0686	13,929.2	57.6313	13,929.2	58.7261	13,929.2	55.5127	13,929.2	54.7525	13,929.2	51.1519	13,929.2	53.2711	13,929.2	49.6217	13,929.2	49.5092	13,929.2	47.9398	13,929.2	46.6266	13,929.2	46.8099	13,929.2	43.3274	13,929.2	43.6281	13,929.2	39.824	13,929.2	42.7245	13,929.2	35.2769	13,929.2	43.1497	13,929.2	31.5894	13,929.2	34.6544	13,929.2	41.4464
14,419.9	84.8946	14,419.9	83.9771	14,419.9	84.2458	14,419.9	82.483	14,419.9	82.7735	14,419.9	79.8036	14,419.9	79.9625	14,419.9	75.9543	14,419.9	75.3102	14,419.9	69.6739	14,419.9	71.3081	14,419.9	66.3115	14,419.9	66.7908	14,419.9	63.9346	14,419.9	62.9751	14,419.9	61.5145	14,419.9	59.1693	14,419.9	58.9878	14,419.9	56.9236	14,419.9	55.7669	14,419.9	53.3637	14,419.9	54.312	14,419.9	51.6121	14,419.9	48.9053	14,419.9	49.8249	14,419.9	41.0216	14,419.9	45.6273	14,419.9	42.8866	14,419.9	43.1026	14,419.9	35.2187	14,419.9	43.3405	14,419.9	26.9742	14,419.9	43.8903	14,419.9	19.627	14,419.9	35.5065	14,419.9	32.7981
14,928.2	85.0408	14,928.2	84.2105	14,928.2	84.2257	14,928.2	82.4271	14,928.2	82.7662	14,928.2	79.7916	14,928.2	79.6084	14,928.2	75.9949	14,928.2	74.992	14,928.2	69.973	14,928.2	70.6364	14,928.2	66.5303	14,928.2	65.7483	14,928.2	64.5041	14,928.2	62.251	14,928.2	62.6602	14,928.2	60.6825	14,928.2	59.2649	14,928.2	57.6893	14,928.2	55.9258	14,928.2	54.4424	14,928.2	53.1151	14,928.2	51.8063	14,928.2	49.6544	14,928.2	49.5105	14,928.2	44.6701	14,928.2	48.7143	14,928.2	42.3481	14,928.2	44.5007	14,928.2	33.5949	14,928.2	46.7147	14,928.2	35.0964	14,928.2	45.2609	14,928.2	34.9819	14,928.2	27.0107	14,928.2	31.5182
15,455.6	85.007	15,455.6	84.424	15,455.6	84.3077	15,455.6	82.5852	15,455.6	82.6095	15,455.6	79.9596	15,455.6	79.093	15,455.6	76.3366	15,455.6	74.6844	15,455.6	69.5488	15,455.6	69.518	15,455.6	66.3888	15,455.6	65.0214	15,455.6	63.8678	15,455.6	63.2072	15,455.6	62.4029	15,455.6	63.2161	15,455.6	59.0994	15,455.6	58.7702	15,455.6	56.0408	15,455.6	55.1614	15,455.6	54.1619	15,455.6	53.1771	15,455.6	49.3908	15,455.6	50.0282	15,455.6	43.0018	15,455.6	49.7381	15,455.6	40.4201	15,455.6	44.341	15,455.6	31.8597	15,455.6	48.256	15,455.6	34.7684	15,455.6	43.3169	15,455.6	30.5184	15,455.6	28.0225	15,455.6	21.1514
16,000.5	84.8889	16,000.5	84.3928	16,000.5	84.173	16,000.5	82.6258	16,000.5	82.281	16,000.5	79.3963	16,000.5	78.426	16,000.5	75.7589	16,000.5	74.0032	16,000.5	68.7395	16,000.5	67.6386	16,000.5	66.1531	16,000.5	65.9816	16,000.5	64.3702	16,000.5	66.0341	16,000.5	63.3133	16,000.5	63.7889	16,000.5	59.5867	16,000.5	59.2338	16,000.5	55.4382	16,000.5	56.3161	16,000.5	54.3877	16,000.5	54.395	16,000.5	49.6766	16,000.5	51.1699	16,000.5	42.9677	16,000.5	49.3309	16,000.5	42.1662	16,000.5	45.2854	16,000.5	29.8959	16,000.5	48.1956	16,000.5	37.3917	16,000.5	40.4106	16,000.5	27.4429	16,000.5	36.8558	16,000.5	32.9814
16,564.5	84.5245	16,564.5	84.0292	16,564.5	83.9007	16,564.5	82.2856	16,564.5	81.6214	16,564.5	78.9581	16,564.5	78.0111	16,564.5	75.5067	16,564.5	72.9362	16,564.5	68.6975	16,564.5	66.5523	16,564.5	66.3414	16,564.5	66.701	16,564.5	65.5248	16,564.5	66.3361	16,564.5	63.2214	16,564.5	63.1585	16,564.5	59.1375	16,564.5	57.9117	16,564.5	55.4367	16,564.5	56.2181	16,564.5	53.4735	16,564.5	53.5878	16,564.5	48.7906	16,564.5	48.7305	16,564.5	41.6533	16,564.5	45.894	16,564.5	40.2926	16,564.5	44.6713	16,564.5	21.7287	16,564.5	46.7014	16,564.5	40.15	16,564.5	37.7058	16,564.5	31.9032	16,564.5	36.5583	16,564.5	33.1188
17,148.9	84.2001	17,148.9	83.7045	17,148.9	83.4092	17,148.9	81.8828	17,148.9	80.8582	17,148.9	78.3919	17,148.9	77.1694	17,148.9	74.6059	17,148.9	71.5151	17,148.9	67.8939	17,148.9	65.4616	17,148.9	65.931	17,148.9	66.8413	17,148.9	65.6269	17,148.9	65.1732	17,148.9	62.2619	17,148.9	62.1052	17,148.9	59.0097	17,148.9	57.0776	17,148.9	54.6141	17,148.9	54.7728	17,148.9	52.0374	17,148.9	52.3649	17,148.9	46.6746	17,148.9	46.2412	17,148.9	41.7683	17,148.9	44.8711	17,148.9	40.1016	17,148.9	42.4024	17,148.9	27.0311	17,148.9	45.1879	17,148.9	40.72	17,148.9	32.2268	17,148.9	31.4383	17,148.9	37.1969	17,148.9	33.93
17,752.4	83.6675	17,752.4	83.2059	17,752.4	82.8093	17,752.4	81.3954	17,752.4	80.1241	17,752.4	77.8365	17,752.4	76.2836	17,752.4	73.7611	17,752.4	70.0168	17,752.4	66.6035	17,752.4	65.0113	17,752.4	65.5822	17,752.4	66.1741	17,752.4	64.5287	17,752.4	64.3704	17,752.4	61.9605	17,752.4	61.9197	17,752.4	58.6163	17,752.4	57.1828	17,752.4	53.99	17,752.4	55.0515	17,752.4	51.9004	17,752.4	51.7527	17,752.4	46.9442	17,752.4	45.594	17,752.4	42.4309	17,752.4	45.8517	17,752.4	40.0212	17,752.4	41.8694	17,752.4	33.3164	17,752.4	44.0548	17,752.4	41.74	17,752.4	35.0944	17,752.4	35.1911	17,752.4	35.9881	17,752.4	33.0839
18,379.4	83.1437	18,379.4	82.501	18,379.4	82.1745	18,379.4	80.647	18,379.4	79.382	18,379.4	76.6907	18,379.4	75.2948	18,379.4	72.3729	18,379.4	68.5815	18,379.4	65.3759	18,379.4	64.2384	18,379.4	64.7835	18,379.4	65.0788	18,379.4	64.1041	18,379.4	64.7629	18,379.4	61.916	18,379.4	62.0861	18,379.4	58.0284	18,379.4	57.0282	18,379.4	53.4562	18,379.4	54.6451	18,379.4	50.9075	18,379.4	50.894	18,379.4	45.3184	18,379.4	45.3075	18,379.4	42.3604	18,379.4	47.1183	18,379.4	37.3039	18,379.4	40.3363	18,379.4	36.3911	18,379.4	40.9024	18,379.4	40.1308	18,379.4	39.4488	18,379.4	35.3066	18,379.4	29.531	18,379.4	34.503
19,026.9	82.393	19,026.9	81.7633	19,026.9	81.3324	19,026.9	79.8021	19,026.9	78.498	19,026.9	75.8289	19,026.9	73.9781	19,026.9	71.2008	19,026.9	67.4769	19,026.9	64.4593	19,026.9	63.1008	19,026.9	63.3117	19,026.9	64.668	19,026.9	63.7386	19,026.9	64.3147	19,026.9	60.0973	19,026.9	60.9819	19,026.9	56.833	19,026.9	55.8651	19,026.9	51.6167	19,026.9	53.3403	19,026.9	49.0891	19,026.9	49.573	19,026.9	42.8719	19,026.9	43.7752	19,026.9	41.2571	19,026.9	47.5605	19,026.9	36.6879	19,026.9	37.0048	19,026.9	35.2326	19,026.9	37.7124	19,026.9	38.7196	19,026.9	39.8575	19,026.9	32.2033	19,026.9	26.0711	19,026.9	20.7494
19,697.8	81.7253	19,697.8	81.0241	19,697.8	80.4692	19,697.8	79.0101	19,697.8	77.5429	19,697.8	74.5395	19,697.8	72.2413	19,697.8	69.3046	19,697.8	65.8574	19,697.8	62.879	19,697.8	62.1501	19,697.8	62.5378	19,697.8	64.2712	19,697.8	62.6146	19,697.8	63.0113	19,697.8	59.6717	19,697.8	59.7302	19,697.8	56.0416	19,697.8	54.7571	19,697.8	50.2861	19,697.8	52.1212	19,697.8	47.9558	19,697.8	48.1137	19,697.8	41.2547	19,697.8	41.8358	19,697.8	41.0115	19,697.8	47.1387	19,697.8	27.8509	19,697.8	34.9287	19,697.8	35.3941	19,697.8	35.8208	19,697.8	33.027	19,697.8	37.4377	19,697.8	17.2482	19,697.8	21.7017	19,697.8	28.212
19,999.5	81.0481	19,999.5	80.5743	19,999.5	79.9939	19,999.5	78.7509	19,999.5	76.9872	19,999.5	74.3477	19,999.5	71.4559	19,999.5	68.5783	19,999.5	65.1642	19,999.5	62.303	19,999.5	62.2621	19,999.5	62.3541	19,999.5	64.0244	19,999.5	62.0202	19,999.5	62.5709	19,999.5	59.8868	19,999.5	58.7899	19,999.5	57.7926	19,999.5	54.2513	19,999.5	42.7017	19,999.5	54.1271	19,999.5	48.3461	19,999.5	48.531	19,999.5	46.1737	19,999.5	35.0853	19,999.5	51.9199	19,999.5	51.8287	19,999.5	40.3623	19,999.5	37.1809	19,999.5	51.3946	19,999.5	49.7923	19,999.5	50.0259	19,999.5	43.9724	19,999.5	36.4749	19,999.5	30.5722	19,999.5	31.6534
