"SPL Vertical"																																																																							
"On-Axis"		"10°"		"-10°"		"20°"		"-20°"		"30°"		"-30°"		"40°"		"-40°"		"50°"		"-50°"		"60°"		"-60°"		"70°"		"-70°"		"80°"		"-80°"		"90°"		"-90°"		"100°"		"-100°"		"110°"		"-110°"		"120°"		"-120°"		"130°"		"-130°"		"140°"		"-140°"		"150°"		"-150°"		"160°"		"-160°"		"170°"		"-170°"		"180°"	
"Frequency / Hz"	"Sound Pressure Level / dB (re 20 µPa/V)  [2.83  V @ 1. m]"	"Frequency / Hz"	"Sound Pressure Level / dB (re 20 µPa/V)  [2.83  V @ 1. m]"	"Frequency / Hz"	"Sound Pressure Level / dB (re 20 µPa/V)  [2.83  V @ 1. m]"	"Frequency / Hz"	"Sound Pressure Level / dB (re 20 µPa/V)  [2.83  V @ 1. m]"	"Frequency / Hz"	"Sound Pressure Level / dB (re 20 µPa/V)  [2.83  V @ 1. m]"	"Frequency / Hz"	"Sound Pressure Level / dB (re 20 µPa/V)  [2.83  V @ 1. m]"	"Frequency / Hz"	"Sound Pressure Level / dB (re 20 µPa/V)  [2.83  V @ 1. m]"	"Frequency / Hz"	"Sound Pressure Level / dB (re 20 µPa/V)  [2.83  V @ 1. m]"	"Frequency / Hz"	"Sound Pressure Level / dB (re 20 µPa/V)  [2.83  V @ 1. m]"	"Frequency / Hz"	"Sound Pressure Level / dB (re 20 µPa/V)  [2.83  V @ 1. m]"	"Frequency / Hz"	"Sound Pressure Level / dB (re 20 µPa/V)  [2.83  V @ 1. m]"	"Frequency / Hz"	"Sound Pressure Level / dB (re 20 µPa/V)  [2.83  V @ 1. m]"	"Frequency / Hz"	"Sound Pressure Level / dB (re 20 µPa/V)  [2.83  V @ 1. m]"	"Frequency / Hz"	"Sound Pressure Level / dB (re 20 µPa/V)  [2.83  V @ 1. m]"	"Frequency / Hz"	"Sound Pressure Level / dB (re 20 µPa/V)  [2.83  V @ 1. m]"	"Frequency / Hz"	"Sound Pressure Level / dB (re 20 µPa/V)  [2.83  V @ 1. m]"	"Frequency / Hz"	"Sound Pressure Level / dB (re 20 µPa/V)  [2.83  V @ 1. m]"	"Frequency / Hz"	"Sound Pressure Level / dB (re 20 µPa/V)  [2.83  V @ 1. m]"	"Frequency / Hz"	"Sound Pressure Level / dB (re 20 µPa/V)  [2.83  V @ 1. m]"	"Frequency / Hz"	"Sound Pressure Level / dB (re 20 µPa/V)  [2.83  V @ 1. m]"	"Frequency / Hz"	"Sound Pressure Level / dB (re 20 µPa/V)  [2.83  V @ 1. m]"	"Frequency / Hz"	"Sound Pressure Level / dB (re 20 µPa/V)  [2.83  V @ 1. m]"	"Frequency / Hz"	"Sound Pressure Level / dB (re 20 µPa/V)  [2.83  V @ 1. m]"	"Frequency / Hz"	"Sound Pressure Level / dB (re 20 µPa/V)  [2.83  V @ 1. m]"	"Frequency / Hz"	"Sound Pressure Level / dB (re 20 µPa/V)  [2.83  V @ 1. m]"	"Frequency / Hz"	"Sound Pressure Level / dB (re 20 µPa/V)  [2.83  V @ 1. m]"	"Frequency / Hz"	"Sound Pressure Level / dB (re 20 µPa/V)  [2.83  V @ 1. m]"	"Frequency / Hz"	"Sound Pressure Level / dB (re 20 µPa/V)  [2.83  V @ 1. m]"	"Frequency / Hz"	"Sound Pressure Level / dB (re 20 µPa/V)  [2.83  V @ 1. m]"	"Frequency / Hz"	"Sound Pressure Level / dB (re 20 µPa/V)  [2.83  V @ 1. m]"	"Frequency / Hz"	"Sound Pressure Level / dB (re 20 µPa/V)  [2.83  V @ 1. m]"	"Frequency / Hz"	"Sound Pressure Level / dB (re 20 µPa/V)  [2.83  V @ 1. m]"	"Frequency / Hz"	"Sound Pressure Level / dB (re 20 µPa/V)  [2.83  V @ 1. m]"	"Frequency / Hz"	"Sound Pressure Level / dB (re 20 µPa/V)  [2.83  V @ 1. m]"	"Frequency / Hz"	"Sound Pressure Level / dB (re 20 µPa/V)  [2.83  V @ 1. m]"	"Frequency / Hz"	"Sound Pressure Level / dB (re 20 µPa/V)  [2.83  V @ 1. m]"
20.5078	47.6083	20.5078	46.7594	20.5078	48.1588	20.5078	45.6752	20.5078	48.3984	20.5078	44.6035	20.5078	48.3172	20.5078	44.1691	20.5078	47.8983	20.5078	45.0176	20.5078	47.1303	20.5078	46.8769	20.5078	46.0734	20.5078	49.0097	20.5078	45.0748	20.5078	51.017	20.5078	45.0405	20.5078	52.7888	20.5078	46.592	20.5078	54.3186	20.5078	48.9744	20.5078	55.6245	20.5078	51.3421	20.5078	56.725	20.5078	53.4026	20.5078	57.6322	20.5078	55.115	20.5078	58.3513	20.5078	56.5004	20.5078	58.8814	20.5078	57.5867	20.5078	59.2168	20.5078	58.3976	20.5078	59.348	20.5078	58.9515	20.5078	59.2638
21.9727	46.7425	21.9727	45.8339	21.9727	47.4893	21.9727	45.0411	21.9727	47.9721	21.9727	44.8855	21.9727	48.1591	21.9727	45.766	21.9727	48.0463	21.9727	47.4331	21.9727	47.6643	21.9727	49.3562	21.9727	47.1369	21.9727	51.2175	21.9727	46.7996	21.9727	52.9063	21.9727	47.1971	21.9727	54.4019	21.9727	48.5738	21.9727	55.711	21.9727	50.5271	21.9727	56.8449	21.9727	52.552	21.9727	57.8118	21.9727	54.3938	21.9727	58.6149	21.9727	55.9731	21.9727	59.2525	21.9727	57.2787	21.9727	59.7185	21.9727	58.3201	21.9727	60.0037	21.9727	59.1103	21.9727	60.0972	21.9727	59.662	21.9727	59.9872
23.4375	52.0958	23.4375	51.6122	23.4375	52.4657	23.4375	51.0983	23.4375	52.6768	23.4375	50.696	23.4375	52.7049	23.4375	50.5981	23.4375	52.5397	23.4375	50.9631	23.4375	52.19	23.4375	51.7953	23.4375	51.7063	23.4375	52.9436	23.4375	51.2269	23.4375	54.2222	23.4375	51.0223	23.4375	55.4958	23.4375	51.4074	23.4375	56.6881	23.4375	52.4571	23.4375	57.7609	23.4375	53.9143	23.4375	58.695	23.4375	55.4587	23.4375	59.4787	23.4375	56.8927	23.4375	60.1026	23.4375	58.1294	23.4375	60.5568	23.4375	59.1395	23.4375	60.8311	23.4375	59.9176	23.4375	60.9148	23.4375	60.4676	23.4375	60.797
24.9023	54.2334	24.9023	53.7532	24.9023	54.59	24.9023	53.2013	24.9023	54.7938	24.9023	52.6697	24.9023	54.8274	24.9023	52.3032	24.9023	54.6797	24.9023	52.2727	24.9023	54.3489	24.9023	52.6863	24.9023	53.8545	24.9023	53.5052	24.9023	53.2667	24.9023	54.5779	24.9023	52.7544	24.9023	55.7425	24.9023	52.6042	24.9023	56.8846	24.9023	53.0739	24.9023	57.9372	24.9023	54.1327	24.9023	58.8639	24.9023	55.492	24.9023	59.6437	24.9023	56.8713	24.9023	60.262	24.9023	58.1121	24.9023	60.7071	24.9023	59.1474	24.9023	60.9675	24.9023	59.9561	24.9023	61.0326	24.9023	60.5359	24.9023	60.8919
26.3672	52.8169	26.3672	52.3595	26.3672	53.1714	26.3672	51.8879	26.3672	53.3718	26.3672	51.5462	26.3672	53.3875	26.3672	51.5184	26.3672	53.201	26.3672	51.9418	26.3672	52.8117	26.3672	52.8029	26.3672	52.26	26.3672	53.9518	26.3672	51.6829	26.3672	55.2145	26.3672	51.3836	26.3672	56.4651	26.3672	51.7491	26.3672	57.6324	26.3672	52.8793	26.3672	58.6797	26.3672	54.4541	26.3672	59.5884	26.3672	56.0968	26.3672	60.3473	26.3672	57.5958	26.3672	60.9477	26.3672	58.8704	26.3672	61.3808	26.3672	59.9004	26.3672	61.6374	26.3672	60.6884	26.3672	61.7074	26.3672	61.2445	26.3672	61.5802
27.832	53.6455	27.832	53.2366	27.832	53.9451	27.832	52.8195	27.832	54.0802	27.832	52.5586	27.832	54.0235	27.832	52.6533	27.832	53.7695	27.832	53.2282	27.832	53.3474	27.832	54.2318	27.832	52.8617	27.832	55.4873	27.832	52.5541	27.832	56.8196	27.832	52.7824	27.832	58.1145	27.832	53.7458	27.832	59.3117	27.832	55.2459	27.832	60.3826	27.832	56.9182	27.832	61.3134	27.832	58.5117	27.832	62.0956	27.832	59.9138	27.832	62.7222	27.832	61.0875	27.832	63.1857	27.832	62.027	27.832	63.4775	27.832	62.7377	27.832	63.5884	27.832	63.2284	27.832	63.5087
29.2969	58.9486	29.2969	58.7969	29.2969	59.0906	29.2969	58.6804	29.2969	59.1922	29.2969	58.6548	29.2969	59.2381	29.2969	58.7755	29.2969	59.2293	29.2969	59.0817	29.2969	59.1876	29.2969	59.5798	29.2969	59.1592	29.2969	60.2416	29.2969	59.2168	29.2969	61.0154	29.2969	59.4444	29.2969	61.844	29.2969	59.9037	29.2969	62.6763	29.2969	60.5964	29.2969	63.4715	29.2969	61.4592	29.2969	64.1989	29.2969	62.3968	29.2969	64.8344	29.2969	63.3188	29.2969	65.3589	29.2969	64.158	29.2969	65.7563	29.2969	64.8709	29.2969	66.0123	29.2969	65.4323	29.2969	66.1154	29.2969	65.8289	29.2969	66.0562
30.7617	60.1557	30.7617	59.9782	30.7617	60.3155	30.7617	59.8249	30.7617	60.4287	30.7617	59.7489	30.7617	60.4802	30.7617	59.8053	30.7617	60.4688	30.7617	60.0369	30.7617	60.4107	30.7617	60.4574	30.7617	60.3446	30.7617	61.046	30.7617	60.334	30.7617	61.756	30.7617	60.4602	30.7617	62.5316	30.7617	60.7948	30.7617	63.3206	30.7617	61.3621	30.7617	64.0807	30.7617	62.1202	30.7617	64.7791	30.7617	62.983	30.7617	65.3907	30.7617	63.8579	30.7617	65.8956	30.7617	64.6701	30.7617	66.2771	30.7617	65.3691	30.7617	66.5209	30.7617	65.9244	30.7617	66.615	30.7617	66.32	30.7617	66.55
32.2266	61.1838	32.2266	61.0283	32.2266	61.3205	32.2266	60.8909	32.2266	61.4131	32.2266	60.8182	32.2266	61.448	32.2266	60.8595	32.2266	61.4249	32.2266	61.0552	32.2266	61.3586	32.2266	61.4225	32.2266	61.2836	32.2266	61.9488	32.2266	61.2571	32.2266	62.5967	32.2266	61.3532	32.2266	63.3164	32.2266	61.6404	32.2266	64.0586	32.2266	62.1476	32.2266	64.7806	32.2266	62.844	32.2266	65.4484	32.2266	63.653	32.2266	66.0352	32.2266	64.4861	32.2266	66.5193	32.2266	65.2688	32.2266	66.8832	32.2266	65.9492	32.2266	67.1123	32.2266	66.4948	32.2266	67.1945	32.2266	66.888	32.2266	67.1214
33.6914	63.4138	33.6914	63.2908	33.6914	63.5231	33.6914	63.181	33.6914	63.5999	33.6914	63.1174	33.6914	63.6337	33.6914	63.1354	33.6914	63.6241	33.6914	63.2661	33.6914	63.5823	33.6914	63.5276	33.6914	63.5339	33.6914	63.9195	33.6914	63.5205	33.6914	64.4223	33.6914	63.5959	33.6914	65.0028	33.6914	63.8121	33.6914	65.6226	33.6914	64.1978	33.6914	66.2438	33.6914	64.7418	33.6914	66.8326	33.6914	65.3946	33.6914	67.3606	33.6914	66.0884	33.6914	67.8038	33.6914	66.7579	33.6914	68.1425	33.6914	67.3512	33.6914	68.3602	33.6914	67.8329	33.6914	68.4443	33.6914	68.1813	33.6914	68.3859
35.1562	64.5481	35.1562	64.4219	35.1562	64.6641	35.1562	64.3109	35.1562	64.7516	35.1562	64.2462	35.1562	64.8008	35.1562	64.2608	35.1562	64.8107	35.1562	64.3833	35.1562	64.7912	35.1562	64.6303	35.1562	64.7651	35.1562	65.0014	35.1562	64.769	35.1562	65.4788	35.1562	64.8498	35.1562	66.0318	35.1562	65.0533	35.1562	66.6242	35.1562	65.4064	35.1562	67.2199	35.1562	65.9022	35.1562	67.7865	35.1562	66.5002	35.1562	68.2959	35.1562	67.1412	35.1562	68.7248	35.1562	67.7648	35.1562	69.0536	35.1562	68.3214	35.1562	69.2661	35.1562	68.7754	35.1562	69.3501	35.1562	69.1046	35.1562	69.2973
36.6211	65.8176	36.6211	65.7252	36.6211	65.9081	36.6211	65.6522	36.6211	65.981	36.6211	65.6244	36.6211	66.028	36.6211	65.668	36.6211	66.0488	36.6211	65.8052	36.6211	66.053	36.6211	66.0488	36.6211	66.061	36.6211	66.3984	36.6211	66.1043	36.6211	66.8402	36.6211	66.2216	36.6211	67.3497	36.6211	66.4487	36.6211	67.8969	36.6211	66.8046	36.6211	68.4504	36.6211	67.2811	36.6211	68.9808	36.6211	67.8433	36.6211	69.4617	36.6211	68.4403	36.6211	69.87	36.6211	69.0196	36.6211	70.186	36.6211	69.5365	36.6211	70.3936	36.6211	69.9578	36.6211	70.48	36.6211	70.2619	36.6211	70.4371
38.0859	67.4143	38.0859	67.343	38.0859	67.4837	38.0859	67.2861	38.0859	67.5396	38.0859	67.2623	38.0859	67.5752	38.0859	67.2916	38.0859	67.5902	38.0859	67.3917	38.0859	67.5916	38.0859	67.5747	38.0859	67.5949	38.0859	67.844	38.0859	67.6245	38.0859	68.1933	38.0859	67.7106	38.0859	68.6067	38.0859	67.8829	38.0859	69.0616	38.0859	68.16	38.0859	69.5319	38.0859	68.5412	38.0859	69.9908	38.0859	69.0029	38.0859	70.4127	38.0859	69.5059	38.0859	70.7744	38.0859	70.0052	38.0859	71.0557	38.0859	70.4593	38.0859	71.24	38.0859	70.8355	38.0859	71.3148	38.0859	71.111	38.0859	71.2724
39.5508	68.6743	39.5508	68.6013	39.5508	68.7474	39.5508	68.5427	39.5508	68.8106	39.5508	68.5153	39.5508	68.8582	39.5508	68.537	39.5508	68.8905	39.5508	68.6243	39.5508	68.9139	39.5508	68.789	39.5508	68.9424	39.5508	69.0354	39.5508	68.9966	39.5508	69.359	39.5508	69.1019	39.5508	69.7464	39.5508	69.2824	39.5508	70.1774	39.5508	69.5528	39.5508	70.628	39.5508	69.9118	39.5508	71.0725	39.5508	70.3395	39.5508	71.4862	39.5508	70.802	39.5508	71.8459	39.5508	71.2594	39.5508	72.1315	39.5508	71.674	39.5508	72.326	39.5508	72.0147	39.5508	72.4165	39.5508	72.2594	39.5508	72.395
41.0156	69.8448	41.0156	69.7763	41.0156	69.9144	41.0156	69.7212	41.0156	69.9762	41.0156	69.6944	41.0156	70.0258	41.0156	69.712	41.0156	70.0637	41.0156	69.7891	41.0156	70.0959	41.0156	69.9371	41.0156	70.1347	41.0156	70.1609	41.0156	70.1978	41.0156	70.4576	41.0156	70.3068	41.0156	70.816	41.0156	70.4819	41.0156	71.2183	41.0156	70.7355	41.0156	71.6423	41.0156	71.0667	41.0156	72.0638	41.0156	71.4587	41.0156	72.4585	41.0156	71.8825	41.0156	72.804	41.0156	72.3026	41.0156	73.08	41.0156	72.6843	41.0156	73.27	41.0156	72.9985	41.0156	73.3612	41.0156	73.2236	41.0156	73.3463
42.4805	71.0683	42.4805	71.0032	42.4805	71.1378	42.4805	70.9532	42.4805	71.2038	42.4805	70.9308	42.4805	71.2622	42.4805	70.9496	42.4805	71.3127	42.4805	71.022	42.4805	71.36	42.4805	71.1575	42.4805	71.4135	42.4805	71.3604	42.4805	71.4871	42.4805	71.6285	42.4805	71.598	42.4805	71.9529	42.4805	71.7621	42.4805	72.3185	42.4805	71.9903	42.4805	72.706	42.4805	72.2829	42.4805	73.0938	42.4805	72.6276	42.4805	73.4596	42.4805	73.0009	42.4805	73.7819	42.4805	73.3731	42.4805	74.0415	42.4805	73.7133	42.4805	74.2221	42.4805	73.9944	42.4805	74.3117	42.4805	74.1954	42.4805	74.3032
43.9453	72.1063	43.9453	72.0457	43.9453	72.1728	43.9453	72.0006	43.9453	72.2382	43.9453	71.9821	43.9453	72.2988	43.9453	72.002	43.9453	72.3542	43.9453	72.0713	43.9453	72.4084	43.9453	72.1982	43.9453	72.4693	43.9453	72.3868	43.9453	72.5487	43.9453	72.6353	43.9453	72.6607	43.9453	72.9362	43.9453	72.819	43.9453	73.2764	43.9453	73.0327	43.9453	73.6384	43.9453	73.3025	43.9453	74.0023	43.9453	73.6183	43.9453	74.3473	43.9453	73.9601	43.9453	74.6529	43.9453	74.3016	43.9453	74.9004	43.9453	74.6148	43.9453	75.074	43.9453	74.874	43.9453	75.1619	43.9453	75.0593	43.9453	75.1572
45.4102	72.9546	45.4102	72.9052	45.4102	73.0147	45.4102	72.8744	45.4102	73.0794	45.4102	72.8712	45.4102	73.1448	45.4102	72.9048	45.4102	73.2099	45.4102	72.9834	45.4102	73.2768	45.4102	73.1128	45.4102	73.3513	45.4102	73.2957	45.4102	73.442	45.4102	73.5301	45.4102	73.5599	45.4102	73.8091	45.4102	73.7154	45.4102	74.1217	45.4102	73.916	45.4102	74.4528	45.4102	74.1622	45.4102	74.785	45.4102	74.4465	45.4102	75.0996	45.4102	74.7526	45.4102	75.3781	45.4102	75.0587	45.4102	75.6034	45.4102	75.3404	45.4102	75.7609	45.4102	75.5749	45.4102	75.8397	45.4102	75.7437	45.4102	75.8341
46.875	74.2157	46.875	74.1683	46.875	74.2693	46.875	74.1336	46.875	74.3244	46.875	74.1192	46.875	74.3785	46.875	74.1334	46.875	74.4313	46.875	74.1843	46.875	74.4852	46.875	74.2787	46.875	74.5456	46.875	74.4209	46.875	74.6205	46.875	74.6114	46.875	74.7194	46.875	74.8464	46.875	74.8522	46.875	75.1174	46.875	75.0256	46.875	75.4117	46.875	75.2412	46.875	75.7137	46.875	75.4927	46.875	76.0055	46.875	75.766	46.875	76.2688	46.875	76.041	46.875	76.4861	46.875	76.2949	46.875	76.6424	46.875	76.5056	46.875	76.726	46.875	76.655	46.875	76.7304
48.3398	74.8957	48.3398	74.8501	48.3398	74.9507	48.3398	74.8197	48.3398	75.0108	48.3398	74.8112	48.3398	75.0735	48.3398	74.8319	48.3398	75.1384	48.3398	74.889	48.3398	75.2073	48.3398	74.9879	48.3398	75.2845	48.3398	75.1321	48.3398	75.3763	48.3398	75.3216	48.3398	75.4903	48.3398	75.5524	48.3398	75.6339	48.3398	75.8166	48.3398	75.8122	48.3398	76.1026	48.3398	76.0256	48.3398	76.3957	48.3398	76.268	48.3398	76.6795	48.3398	76.5267	48.3398	76.9367	48.3398	76.7837	48.3398	77.1508	48.3398	77.0186	48.3398	77.3074	48.3398	77.2113	48.3398	77.3954	48.3398	77.345	48.3398	77.4081
51.2695	76.3148	51.2695	76.2751	51.2695	76.3664	51.2695	76.2513	51.2695	76.4268	51.2695	76.2481	51.2695	76.494	51.2695	76.27	51.2695	76.567	51.2695	76.3218	51.2695	76.6464	51.2695	76.407	51.2695	76.7341	51.2695	76.5279	51.2695	76.8331	51.2695	76.6846	51.2695	76.9476	51.2695	76.8747	51.2695	77.0813	51.2695	77.0928	51.2695	77.2369	51.2695	77.3305	51.2695	77.4143	51.2695	77.5766	51.2695	77.6094	51.2695	77.8179	51.2695	77.8135	51.2695	78.0399	51.2695	78.0139	51.2695	78.2284	51.2695	78.1952	51.2695	78.3705	51.2695	78.3417	51.2695	78.4561	51.2695	78.4397	51.2695	78.4794
52.7344	76.909	52.7344	76.8718	52.7344	76.9589	52.7344	76.8507	52.7344	77.019	52.7344	76.8493	52.7344	77.0873	52.7344	76.8714	52.7344	77.1628	52.7344	76.9208	52.7344	77.2456	52.7344	77.0003	52.7344	77.3367	52.7344	77.1119	52.7344	77.438	52.7344	77.2557	52.7344	77.5522	52.7344	77.4299	52.7344	77.6818	52.7344	77.6299	52.7344	77.8287	52.7344	77.8487	52.7344	77.9926	52.7344	78.0763	52.7344	78.17	52.7344	78.301	52.7344	78.3537	52.7344	78.5093	52.7344	78.5328	52.7344	78.688	52.7344	78.6938	52.7344	78.8246	52.7344	78.8227	52.7344	78.9096	52.7344	78.9069	52.7344	78.9373
54.1992	77.404	54.1992	77.3695	54.1992	77.4514	54.1992	77.3504	54.1992	77.5095	54.1992	77.3494	54.1992	77.5768	54.1992	77.3695	54.1992	77.6522	54.1992	77.4135	54.1992	77.7352	54.1992	77.4842	54.1992	77.8261	54.1992	77.583	54.1992	77.9258	54.1992	77.7107	54.1992	78.0357	54.1992	77.8659	54.1992	78.1576	54.1992	78.0452	54.1992	78.2926	54.1992	78.2426	54.1992	78.4403	54.1992	78.4496	54.1992	78.5981	54.1992	78.6556	54.1992	78.76	54.1992	78.8485	54.1992	78.9167	54.1992	79.0156	54.1992	79.0568	54.1992	79.1453	54.1992	79.1677	54.1992	79.2285	54.1992	79.2382	54.1992	79.2598
55.6641	77.8032	55.6641	77.7708	55.6641	77.8491	55.6641	77.7538	55.6641	77.9068	55.6641	77.7544	55.6641	77.9748	55.6641	77.7749	55.6641	78.0518	55.6641	77.8173	55.6641	78.1371	55.6641	77.8838	55.6641	78.2303	55.6641	77.9756	55.6641	78.3315	55.6641	78.0931	55.6641	78.4413	55.6641	78.2355	55.6641	78.5604	55.6641	78.3999	55.6641	78.6892	55.6641	78.5814	55.6641	78.8272	55.6641	78.7725	55.6641	78.9717	55.6641	78.964	55.6641	79.1177	55.6641	79.1447	55.6641	79.2572	55.6641	79.3031	55.6641	79.3803	55.6641	79.4282	55.6641	79.4758	55.6641	79.5112	55.6641	79.5338	55.6641	79.5467
58.5938	78.5252	58.5938	78.493	58.5938	78.5708	58.5938	78.4753	58.5938	78.6289	58.5938	78.4732	58.5938	78.6983	58.5938	78.4877	58.5938	78.7779	58.5938	78.5202	58.5938	78.8661	58.5938	78.5718	58.5938	78.9616	58.5938	78.6437	58.5938	79.0628	58.5938	78.7363	58.5938	79.1686	58.5938	78.8495	58.5938	79.2779	58.5938	78.9816	58.5938	79.3899	58.5938	79.1295	58.5938	79.5035	58.5938	79.2878	58.5938	79.6165	58.5938	79.4495	58.5938	79.7258	58.5938	79.6056	58.5938	79.8259	58.5938	79.7464	58.5938	79.91	58.5938	79.8625	58.5938	79.9703	58.5938	79.9461	58.5938	79.9996	58.5938	79.9923
60.0586	78.7364	60.0586	78.7053	60.0586	78.7806	60.0586	78.6878	60.0586	78.8371	60.0586	78.6849	60.0586	78.9049	60.0586	78.6974	60.0586	78.9828	60.0586	78.7262	60.0586	79.0692	60.0586	78.7723	60.0586	79.1625	60.0586	78.8367	60.0586	79.2607	60.0586	78.92	60.0586	79.3623	60.0586	79.0219	60.0586	79.4658	60.0586	79.1414	60.0586	79.5698	60.0586	79.2758	60.0586	79.673	60.0586	79.4206	60.0586	79.7739	60.0586	79.5693	60.0586	79.8695	60.0586	79.714	60.0586	79.9557	60.0586	79.8458	60.0586	80.0266	60.0586	79.9559	60.0586	80.0757	60.0586	80.0369	60.0586	80.0965	60.0586	80.0843
62.9883	79.1241	62.9883	79.0924	62.9883	79.1697	62.9883	79.0749	62.9883	79.2289	62.9883	79.0713	62.9883	79.3008	62.9883	79.0817	62.9883	79.3839	62.9883	79.1061	62.9883	79.476	62.9883	79.1447	62.9883	79.5745	62.9883	79.1982	62.9883	79.6764	62.9883	79.2667	62.9883	79.7789	62.9883	79.3507	62.9883	79.8792	62.9883	79.4496	62.9883	79.9752	62.9883	79.562	62.9883	80.0649	62.9883	79.6849	62.9883	80.1467	62.9883	79.8138	62.9883	80.2186	62.9883	79.9425	62.9883	80.278	62.9883	80.0637	62.9883	80.3212	62.9883	80.1698	62.9883	80.3439	62.9883	80.2542	62.9883	80.3419	62.9883	80.3122
64.4531	79.2827	64.4531	79.2494	64.4531	79.3301	64.4531	79.2303	64.4531	79.3912	64.4531	79.2251	64.4531	79.4652	64.4531	79.2335	64.4531	79.5505	64.4531	79.2555	64.4531	79.6448	64.4531	79.291	64.4531	79.7454	64.4531	79.3403	64.4531	79.849	64.4531	79.4037	64.4531	79.9522	64.4531	79.4815	64.4531	80.0519	64.4531	79.5733	64.4531	80.1453	64.4531	79.678	64.4531	80.2303	64.4531	79.7931	64.4531	80.305	64.4531	79.9149	64.4531	80.3677	64.4531	80.0377	64.4531	80.4161	64.4531	80.1551	64.4531	80.4475	64.4531	80.26	64.4531	80.4588	64.4531	80.3462	64.4531	80.4467	64.4531	80.4092
67.3828	79.5084	67.3828	79.4757	67.3828	79.5572	67.3828	79.4587	67.3828	79.6219	67.3828	79.4565	67.3828	79.7015	67.3828	79.4681	67.3828	79.794	67.3828	79.4925	67.3828	79.8966	67.3828	79.5287	67.3828	80.0057	67.3828	79.5763	67.3828	80.1168	67.3828	79.635	67.3828	80.2256	67.3828	79.7048	67.3828	80.3277	67.3828	79.7856	67.3828	80.4193	67.3828	79.8769	67.3828	80.4977	67.3828	79.9772	67.3828	80.5607	67.3828	80.0843	67.3828	80.6072	67.3828	80.1941	67.3828	80.6363	67.3828	80.3017	67.3828	80.6469	67.3828	80.4018	67.3828	80.6381	67.3828	80.4889	67.3828	80.6088	67.3828	80.5588
68.8477	79.5813	68.8477	79.5508	68.8477	79.629	68.8477	79.5365	68.8477	79.6938	68.8477	79.5373	68.8477	79.7748	68.8477	79.5516	68.8477	79.8701	68.8477	79.5779	68.8477	79.9765	68.8477	79.615	68.8477	80.09	68.8477	79.662	68.8477	80.2057	68.8477	79.7186	68.8477	80.3186	68.8477	79.7846	68.8477	80.4237	68.8477	79.8602	68.8477	80.5167	68.8477	79.9451	68.8477	80.5943	68.8477	80.0386	68.8477	80.6543	68.8477	80.139	68.8477	80.6955	68.8477	80.2432	68.8477	80.7174	68.8477	80.3471	68.8477	80.7196	68.8477	80.4458	68.8477	80.7021	68.8477	80.5343	68.8477	80.6648	68.8477	80.6084
71.7773	79.7894	71.7773	79.7594	71.7773	79.8363	71.7773	79.7452	71.7773	79.9004	71.7773	79.7448	71.7773	79.981	71.7773	79.7563	71.7773	80.076	71.7773	79.7774	71.7773	80.182	71.7773	79.8065	71.7773	80.2945	71.7773	79.8423	71.7773	80.4081	71.7773	79.8841	71.7773	80.5171	71.7773	79.9321	71.7773	80.6156	71.7773	79.9866	71.7773	80.6986	71.7773	80.0485	71.7773	80.7623	71.7773	80.1184	71.7773	80.8043	71.7773	80.1962	71.7773	80.8239	71.7773	80.2809	71.7773	80.8217	71.7773	80.3702	71.7773	80.7991	71.7773	80.4608	71.7773	80.758	71.7773	80.5488	71.7773	80.7008	71.7773	80.63
74.707	80.0845	74.707	80.0542	74.707	80.1301	74.707	80.0378	74.707	80.1916	74.707	80.0333	74.707	80.2682	74.707	80.0383	74.707	80.3579	74.707	80.0505	74.707	80.4574	74.707	80.0678	74.707	80.5622	74.707	80.0887	74.707	80.6667	74.707	80.1127	74.707	80.7649	74.707	80.1399	74.707	80.8506	74.707	80.1712	74.707	80.9185	74.707	80.2082	74.707	80.9645	74.707	80.2528	74.707	80.9863	74.707	80.3065	74.707	80.9836	74.707	80.37	74.707	80.9579	74.707	80.4428	74.707	80.912	74.707	80.5231	74.707	80.8499	74.707	80.6079	74.707	80.7756	74.707	80.6935
77.6367	80.3233	77.6367	80.2916	77.6367	80.3692	77.6367	80.2724	77.6367	80.4299	77.6367	80.2634	77.6367	80.5049	77.6367	80.2621	77.6367	80.5923	77.6367	80.2657	77.6367	80.6889	77.6367	80.2721	77.6367	80.7901	77.6367	80.2796	77.6367	80.8899	77.6367	80.2875	77.6367	80.982	77.6367	80.2963	77.6367	81.0597	77.6367	80.3075	77.6367	81.117	77.6367	80.3235	77.6367	81.1496	77.6367	80.3472	77.6367	81.155	77.6367	80.3817	77.6367	81.1329	77.6367	80.4291	77.6367	81.0858	77.6367	80.4905	77.6367	81.0178	77.6367	80.5655	77.6367	80.9343	77.6367	80.6516	77.6367	80.8414	77.6367	80.7452
79.1016	80.3764	79.1016	80.3436	79.1016	80.4227	79.1016	80.3225	79.1016	80.4832	79.1016	80.3109	79.1016	80.5575	79.1016	80.306	79.1016	80.6436	79.1016	80.3051	79.1016	80.7383	79.1016	80.306	79.1016	80.8369	79.1016	80.3069	79.1016	80.9334	79.1016	80.3074	79.1016	81.0213	79.1016	80.3079	79.1016	81.0938	79.1016	80.3102	79.1016	81.1449	79.1016	80.3168	79.1016	81.1701	79.1016	80.3313	79.1016	81.1668	79.1016	80.3569	79.1016	81.1352	79.1016	80.3967	79.1016	81.0779	79.1016	80.4522	79.1016	80.9997	79.1016	80.5236	79.1016	80.9069	79.1016	80.609	79.1016	80.8063	79.1016	80.705
82.0312	80.4453	82.0312	80.412	82.0312	80.493	82.0312	80.3917	82.0312	80.5557	82.0312	80.3817	82.0312	80.6325	82.0312	80.3791	82.0312	80.7213	82.0312	80.381	82.0312	80.8181	82.0312	80.3844	82.0312	80.918	82.0312	80.3874	82.0312	81.0147	82.0312	80.3887	82.0312	81.1013	82.0312	80.3884	82.0312	81.171	82.0312	80.3878	82.0312	81.2173	82.0312	80.3892	82.0312	81.2357	82.0312	80.396	82.0312	81.2239	82.0312	80.412	82.0312	81.1824	82.0312	80.4409	82.0312	81.1146	82.0312	80.4855	82.0312	81.0266	82.0312	80.5473	82.0312	80.9258	82.0312	80.6258	82.0312	80.8205	82.0312	80.7184
84.9609	80.6747	84.9609	80.6471	84.9609	80.7157	84.9609	80.6302	84.9609	80.7715	84.9609	80.6211	84.9609	80.8426	84.9609	80.6164	84.9609	80.9278	84.9609	80.613	84.9609	81.0241	84.9609	80.6081	84.9609	81.1269	84.9609	80.5998	84.9609	81.2299	84.9609	80.5876	84.9609	81.3253	84.9609	80.572	84.9609	81.4049	84.9609	80.5551	84.9609	81.4608	84.9609	80.5405	84.9609	81.4864	84.9609	80.5331	84.9609	81.4776	84.9609	80.5381	84.9609	81.4335	84.9609	80.561	84.9609	81.3568	84.9609	80.606	84.9609	81.2538	84.9609	80.6753	84.9609	81.1331	84.9609	80.768	84.9609	81.0051	84.9609	80.8803
87.8906	80.699	87.8906	80.6736	87.8906	80.7403	87.8906	80.6613	87.8906	80.7993	87.8906	80.6586	87.8906	80.8763	87.8906	80.662	87.8906	80.9703	87.8906	80.6677	87.8906	81.0779	87.8906	80.6727	87.8906	81.1939	87.8906	80.6744	87.8906	81.3112	87.8906	80.6718	87.8906	81.4212	87.8906	80.665	87.8906	81.5149	87.8906	80.6558	87.8906	81.5834	87.8906	80.6478	87.8906	81.6197	87.8906	80.6457	87.8906	81.6191	87.8906	80.6554	87.8906	81.5805	87.8906	80.6824	87.8906	81.5066	87.8906	80.7315	87.8906	81.4037	87.8906	80.8052	87.8906	81.281	87.8906	80.9027	87.8906	81.1493	87.8906	81.0199
90.8203	81.1218	90.8203	81.0875	90.8203	81.1654	90.8203	81.06	90.8203	81.2197	90.8203	81.0361	90.8203	81.2848	90.8203	81.0123	90.8203	81.3592	90.8203	80.9849	90.8203	81.4399	90.8203	80.9512	90.8203	81.522	90.8203	80.9091	90.8203	81.5993	90.8203	80.858	90.8203	81.6644	90.8203	80.7992	90.8203	81.7094	90.8203	80.7356	90.8203	81.727	90.8203	80.6725	90.8203	81.7111	90.8203	80.6167	90.8203	81.6583	90.8203	80.5763	90.8203	81.5687	90.8203	80.5597	90.8203	81.4464	90.8203	80.5743	90.8203	81.2995	90.8203	80.6249	90.8203	81.1395	90.8203	80.7125	90.8203	80.9796	90.8203	80.8334
95.2148	81.0985	95.2148	81.0592	95.2148	81.1494	95.2148	81.03	95.2148	81.2126	95.2148	81.0088	95.2148	81.2882	95.2148	80.9928	95.2148	81.3748	95.2148	80.9792	95.2148	81.4695	95.2148	80.9651	95.2148	81.5678	95.2148	80.9476	95.2148	81.6633	95.2148	80.9252	95.2148	81.7482	95.2148	80.8972	95.2148	81.8139	95.2148	80.8647	95.2148	81.8517	95.2148	80.8308	95.2148	81.8547	95.2148	80.8006	95.2148	81.8187	95.2148	80.7805	95.2148	81.7435	95.2148	80.7782	95.2148	81.6333	95.2148	80.8008	95.2148	81.4967	95.2148	80.8538	95.2148	81.3458	95.2148	80.9393	95.2148	81.1941	95.2148	81.055
98.1445	81.2471	98.1445	81.2099	98.1445	81.2961	98.1445	81.1826	98.1445	81.3581	98.1445	81.162	98.1445	81.4331	98.1445	81.1447	98.1445	81.5194	98.1445	81.127	98.1445	81.6137	98.1445	81.1057	98.1445	81.711	98.1445	81.0779	98.1445	81.8044	98.1445	81.0423	98.1445	81.8856	98.1445	80.9989	98.1445	81.9457	98.1445	80.9499	98.1445	81.976	98.1445	80.8995	98.1445	81.9695	98.1445	80.8538	98.1445	81.9224	98.1445	80.8208	98.1445	81.8348	98.1445	80.8088	98.1445	81.7115	98.1445	80.8257	98.1445	81.5618	98.1445	80.8773	98.1445	81.3983	98.1445	80.9654	98.1445	81.2354	98.1445	81.0873
101.074	81.217	101.074	81.1756	101.074	81.2712	101.074	81.1446	101.074	81.3395	101.074	81.121	101.074	81.4218	101.074	81.1013	101.074	81.5166	101.074	81.0819	101.074	81.6206	101.074	81.0598	101.074	81.7284	101.074	81.0323	101.074	81.833	101.074	80.998	101.074	81.9257	101.074	80.9572	101.074	81.9969	101.074	80.9119	101.074	82.0374	101.074	80.8663	101.074	82.0393	101.074	80.8266	101.074	81.9979	101.074	80.8009	101.074	81.9127	101.074	80.7976	101.074	81.788	101.074	80.8249	101.074	81.6331	101.074	80.8882	101.074	81.4607	101.074	80.9894	101.074	81.2863	101.074	81.125
105.469	81.4086	105.469	81.3712	105.469	81.4575	105.469	81.3433	105.469	81.5185	105.469	81.3221	105.469	81.5914	105.469	81.3042	105.469	81.6746	105.469	81.2855	105.469	81.7652	105.469	81.2621	105.469	81.8589	105.469	81.2308	105.469	81.9498	105.469	81.1895	105.469	82.0301	105.469	81.1381	105.469	82.0908	105.469	81.0786	105.469	82.1229	105.469	81.0155	105.469	82.1181	105.469	80.9561	105.469	82.071	105.469	80.9095	105.469	81.9804	105.469	80.886	105.469	81.8499	105.469	80.8955	105.469	81.6888	105.469	80.9451	105.469	81.5107	105.469	81.0376	105.469	81.3321	105.469	81.1697
108.398	81.7197	108.398	81.6807	108.398	81.7652	108.398	81.6467	108.398	81.8174	108.398	81.6157	108.398	81.8759	108.398	81.5846	108.398	81.9396	108.398	81.5502	108.398	82.0063	108.398	81.5089	108.398	82.0726	108.398	81.4581	108.398	82.1338	108.398	81.3958	108.398	82.1835	108.398	81.3219	108.398	82.2139	108.398	81.2386	108.398	82.2169	108.398	81.1505	108.398	82.185	108.398	81.065	108.398	82.1134	108.398	80.9919	108.398	82.0014	108.398	80.9424	108.398	81.8532	108.398	80.9274	108.398	81.6787	108.398	80.9559	108.398	81.4924	108.398	81.0319	108.398	81.3116	108.398	81.1533
112.793	81.9498	112.793	81.9184	112.793	81.9865	112.793	81.8908	112.793	82.0297	112.793	81.8651	112.793	82.0803	112.793	81.8387	112.793	82.1389	112.793	81.8087	112.793	82.2048	112.793	81.7719	112.793	82.2763	112.793	81.7255	112.793	82.349	112.793	81.6676	112.793	82.4164	112.793	81.5979	112.793	82.4694	112.793	81.5187	112.793	82.4981	112.793	81.4348	112.793	82.4926	112.793	81.354	112.793	82.4453	112.793	81.2866	112.793	82.3532	112.793	81.2446	112.793	82.2186	112.793	81.2394	112.793	82.0504	112.793	81.2799	112.793	81.8631	112.793	81.3696	112.793	81.6749	112.793	81.5049
117.188	82.0513	117.188	82.0025	117.188	82.0997	117.188	81.9521	117.188	82.148	117.188	81.8983	117.188	82.1959	117.188	81.8389	117.188	82.2424	117.188	81.7714	117.188	82.286	117.188	81.6939	117.188	82.3242	117.188	81.605	117.188	82.3539	117.188	81.505	117.188	82.3705	117.188	81.3961	117.188	82.3686	117.188	81.2827	117.188	82.3423	117.188	81.1713	117.188	82.2861	117.188	81.0707	117.188	82.1961	117.188	80.9912	117.188	82.0719	117.188	80.9435	117.188	81.9166	117.188	80.9368	117.188	81.7384	117.188	80.9772	117.188	81.5492	117.188	81.0659	117.188	81.3639	117.188	81.1981
120.117	82.2857	120.117	82.2283	120.117	82.341	120.117	82.1683	120.117	82.3935	120.117	82.1043	120.117	82.4419	120.117	82.0336	120.117	82.4842	120.117	81.9535	120.117	82.518	120.117	81.8609	120.117	82.5402	120.117	81.7538	120.117	82.5473	120.117	81.6317	120.117	82.5346	120.117	81.496	120.117	82.497	120.117	81.3511	120.117	82.4294	120.117	81.2041	120.117	82.3277	120.117	81.065	120.117	82.1902	120.117	80.9459	120.117	82.0191	120.117	80.8597	120.117	81.8209	120.117	80.8181	120.117	81.6066	120.117	80.8299	120.117	81.3909	120.117	80.8988	120.117	81.1905	120.117	81.0219
124.512	82.3976	124.512	82.353	124.512	82.4391	124.512	82.3036	124.512	82.4786	124.512	82.2468	124.512	82.5162	124.512	82.1791	124.512	82.5513	124.512	82.0964	124.512	82.582	124.512	81.9947	124.512	82.6049	124.512	81.8708	124.512	82.6144	124.512	81.7233	124.512	82.603	124.512	81.5534	124.512	82.5617	124.512	81.3653	124.512	82.4817	124.512	81.1671	124.512	82.3559	124.512	80.971	124.512	82.1817	124.512	80.7923	124.512	81.962	124.512	80.6489	124.512	81.7067	124.512	80.5585	124.512	81.4324	124.512	80.536	124.512	81.1608	124.512	80.5897	124.512	80.9156	124.512	80.7194
128.906	82.0322	128.906	81.99	128.906	82.082	128.906	81.9532	128.906	82.1415	128.906	81.9196	128.906	82.2118	128.906	81.8865	128.906	82.2932	128.906	81.8513	128.906	82.3842	128.906	81.8111	128.906	82.4807	128.906	81.7628	128.906	82.5761	128.906	81.7042	128.906	82.6603	128.906	81.634	128.906	82.7213	128.906	81.5528	128.906	82.7458	128.906	81.4641	128.906	82.7223	128.906	81.3744	128.906	82.6431	128.906	81.2937	128.906	82.5074	128.906	81.2347	128.906	82.322	128.906	81.2112	128.906	82.1019	128.906	81.236	128.906	81.8686	128.906	81.3175	128.906	81.646	128.906	81.4568
133.301	82.1365	133.301	82.0909	133.301	82.1893	133.301	82.0513	133.301	82.2488	133.301	82.0153	133.301	82.314	133.301	81.9788	133.301	82.383	133.301	81.9372	133.301	82.4542	133.301	81.8858	133.301	82.525	133.301	81.8203	133.301	82.5916	133.301	81.7386	133.301	82.6479	133.301	81.6406	133.301	82.6854	133.301	81.5293	133.301	82.6937	133.301	81.4112	133.301	82.6623	133.301	81.2964	133.301	82.583	133.301	81.1979	133.301	82.4525	133.301	81.1304	133.301	82.2743	133.301	81.1083	133.301	82.0595	133.301	81.1429	133.301	81.8263	133.301	81.2395	133.301	81.597	133.301	81.3949
139.16	82.2055	139.16	82.1559	139.16	82.2555	139.16	82.1063	139.16	82.3054	139.16	82.0557	139.16	82.3548	139.16	82.0013	139.16	82.4038	139.16	81.9393	139.16	82.4526	139.16	81.8653	139.16	82.5004	139.16	81.7757	139.16	82.5443	139.16	81.6679	139.16	82.5786	139.16	81.5425	139.16	82.5943	139.16	81.4029	139.16	82.5806	139.16	81.2568	139.16	82.527	139.16	81.1154	139.16	82.4257	139.16	80.9934	139.16	82.274	139.16	80.9071	139.16	82.0765	139.16	80.8718	139.16	81.8453	139.16	80.8991	139.16	81.5989	139.16	80.9938	139.16	81.36	139.16	81.1517
143.555	82.1261	143.555	82.072	143.555	82.1766	143.555	82.0154	143.555	82.2228	143.555	81.957	143.555	82.2652	143.555	81.896	143.555	82.3052	143.555	81.8307	143.555	82.3454	143.555	81.7579	143.555	82.3874	143.555	81.6744	143.555	82.4305	143.555	81.5778	143.555	82.4701	143.555	81.4673	143.555	82.4976	143.555	81.3451	143.555	82.501	143.555	81.217	143.555	82.4677	143.555	81.0927	143.555	82.3874	143.555	80.9851	143.555	82.255	143.555	80.9099	143.555	82.0733	143.555	80.8821	143.555	81.8533	143.555	80.914	143.555	81.6135	143.555	81.0111	143.555	81.3776	143.555	81.17
147.949	82.049	147.949	81.9947	147.949	82.0974	147.949	81.9351	147.949	82.1402	147.949	81.8702	147.949	82.1783	147.949	81.7997	147.949	82.214	147.949	81.7218	147.949	82.2498	147.949	81.6345	147.949	82.2872	147.949	81.5354	147.949	82.3257	147.949	81.4232	147.949	82.3608	147.949	81.2986	147.949	82.3842	147.949	81.1654	147.949	82.3844	147.949	81.0306	147.949	82.3493	147.949	80.905	147.949	82.2688	147.949	80.8021	147.949	82.1377	147.949	80.7368	147.949	81.9582	147.949	80.7227	147.949	81.7403	147.949	80.7695	147.949	81.5012	147.949	80.8802	147.949	81.2632	147.949	81.0494
153.809	81.9304	153.809	81.8635	153.809	81.9914	153.809	81.7924	153.809	82.0453	153.809	81.7185	153.809	82.0918	153.809	81.6419	153.809	82.1321	153.809	81.5612	153.809	82.1686	153.809	81.4741	153.809	82.203	153.809	81.3778	153.809	82.2356	153.809	81.2703	153.809	82.2632	153.809	81.1513	153.809	82.2784	153.809	81.0235	153.809	82.2707	153.809	80.8931	153.809	82.2284	153.809	80.7703	153.809	82.1416	153.809	80.6685	153.809	82.0053	153.809	80.6025	153.809	81.8216	153.809	80.5867	153.809	81.6007	153.809	80.6313	153.809	81.3598	153.809	80.74	153.809	81.1211	153.809	80.9078
159.668	81.878	159.668	81.8109	159.668	81.9389	159.668	81.7394	159.668	81.9922	159.668	81.6647	159.668	82.0375	159.668	81.5864	159.668	82.0758	159.668	81.5025	159.668	82.1092	159.668	81.4102	159.668	82.1397	159.668	81.3062	159.668	82.1673	159.668	81.1884	159.668	82.1885	159.668	81.0571	159.668	82.196	159.668	80.916	159.668	82.1792	159.668	80.7729	159.668	82.1268	159.668	80.6395	159.668	82.0297	159.668	80.5304	159.668	81.8841	159.668	80.4608	159.668	81.6929	159.668	80.4444	159.668	81.4669	159.668	80.4902	159.668	81.2233	159.668	80.6005	159.668	80.9834	159.668	80.7693
165.527	81.883	165.527	81.8233	165.527	81.9387	165.527	81.7618	165.527	81.9889	165.527	81.7001	165.527	82.0334	165.527	81.6383	165.527	82.0739	165.527	81.5746	165.527	82.1133	165.527	81.5053	165.527	82.1541	165.527	81.4263	165.527	82.1968	165.527	81.3339	165.527	82.2377	165.527	81.2264	165.527	82.2683	165.527	81.1061	165.527	82.2764	165.527	80.9794	165.527	82.2487	165.527	80.8573	165.527	82.1745	165.527	80.7546	165.527	82.0486	165.527	80.6875	165.527	81.8736	165.527	80.6706	165.527	81.6604	165.527	80.7142	165.527	81.4264	165.527	80.821	165.527	81.1939	165.527	80.9854
171.387	81.8687	171.387	81.8027	171.387	81.9229	171.387	81.7286	171.387	81.9627	171.387	81.6492	171.387	81.9869	171.387	81.5655	171.387	81.9974	171.387	81.4769	171.387	81.9984	171.387	81.3811	171.387	81.9951	171.387	81.2751	171.387	81.992	171.387	81.157	171.387	81.9896	171.387	81.0268	171.387	81.9836	171.387	80.8882	171.387	81.9645	171.387	80.7487	171.387	81.9203	171.387	80.6195	171.387	81.8401	171.387	80.5143	171.387	81.7172	171.387	80.4473	171.387	81.5521	171.387	80.4306	171.387	81.3533	171.387	80.472	171.387	81.136	171.387	80.5725	171.387	80.9201	171.387	80.7262
177.246	81.799	177.246	81.733	177.246	81.8473	177.246	81.6514	177.246	81.8763	177.246	81.5564	177.246	81.8865	177.246	81.4488	177.246	81.8804	177.246	81.3278	177.246	81.8625	177.246	81.1914	177.246	81.8373	177.246	81.0376	177.246	81.8078	177.246	80.866	177.246	81.773	177.246	80.6789	177.246	81.7272	177.246	80.4829	177.246	81.661	177.246	80.2893	177.246	81.5646	177.246	80.1131	177.246	81.4306	177.246	79.9714	177.246	81.2572	177.246	79.8798	177.246	81.0492	177.246	79.8501	177.246	80.8178	177.246	79.8872	177.246	80.5786	177.246	79.989	177.246	80.3492	177.246	80.1473
183.105	81.3278	183.105	81.2665	183.105	81.3747	183.105	81.1949	183.105	81.4053	183.105	81.1167	183.105	81.4208	183.105	81.0343	183.105	81.4264	183.105	80.9476	183.105	81.4305	183.105	80.8539	183.105	81.4419	183.105	80.7488	183.105	81.4658	183.105	80.6282	183.105	81.5	183.105	80.4899	183.105	81.5335	183.105	80.3358	183.105	81.5484	183.105	80.1733	183.105	81.5245	183.105	80.0159	183.105	81.4453	183.105	79.8813	183.105	81.303	183.105	79.789	183.105	81.1008	183.105	79.7563	183.105	80.8535	183.105	79.7945	183.105	80.584	183.105	79.9066	183.105	80.3195	183.105	80.0864
188.965	81.2222	188.965	81.1289	188.965	81.2943	188.965	81.0211	188.965	81.3403	188.965	80.9056	188.965	81.3596	188.965	80.788	188.965	81.3554	188.965	80.6712	188.965	81.3353	188.965	80.5549	188.965	81.3091	188.965	80.4371	188.965	81.2859	188.965	80.3146	188.965	81.2706	188.965	80.1859	188.965	81.2611	188.965	80.0529	188.965	81.2484	188.965	79.9221	188.965	81.2188	188.965	79.8049	188.965	81.1583	188.965	79.7163	188.965	81.0567	188.965	79.6717	188.965	80.9104	188.965	79.6834	188.965	80.7241	188.965	79.7573	188.965	80.5099	188.965	79.8906	188.965	80.2857	188.965	80.0724
196.289	81.337	196.289	81.2552	196.289	81.3918	196.289	81.1521	196.289	81.4163	196.289	81.0336	196.289	81.411	196.289	80.9046	196.289	81.3804	196.289	80.7676	196.289	81.3327	196.289	80.6225	196.289	81.2771	196.289	80.4677	196.289	81.2213	196.289	80.3015	196.289	81.1674	196.289	80.1235	196.289	81.1108	196.289	79.9373	196.289	81.0415	196.289	79.751	196.289	80.9472	196.289	79.5778	196.289	80.8186	196.289	79.4344	196.289	80.6522	196.289	79.3378	196.289	80.4521	196.289	79.3014	196.289	80.2291	196.289	79.3319	196.289	79.9979	196.289	79.4278	196.289	79.7758	196.289	79.5803
203.613	81.1455	203.613	81.0439	203.613	81.2079	203.613	80.9092	203.613	81.2285	203.613	80.7489	203.613	81.2088	203.613	80.5708	203.613	81.1557	203.613	80.3818	203.613	81.0807	203.613	80.188	203.613	80.9971	203.613	79.9949	203.613	80.9161	203.613	79.8072	203.613	80.842	203.613	79.6294	203.613	80.7703	203.613	79.4665	203.613	80.6887	203.613	79.324	203.613	80.5829	203.613	79.2078	203.613	80.4436	203.613	79.1246	203.613	80.2705	203.613	79.0804	203.613	80.0733	203.613	79.0795	203.613	79.8672	203.613	79.1228	203.613	79.6677	203.613	79.2083	203.613	79.4865	203.613	79.3314
210.938	81.1219	210.938	81.0429	210.938	81.1668	210.938	80.9341	210.938	81.1758	210.938	80.8004	210.938	81.1511	210.938	80.6456	210.938	81.0997	210.938	80.4709	210.938	81.0329	210.938	80.2757	210.938	80.9634	210.938	80.0586	210.938	80.9017	210.938	79.8199	210.938	80.8507	210.938	79.5644	210.938	80.8027	210.938	79.3026	210.938	80.7405	210.938	79.0517	210.938	80.6427	210.938	78.8333	210.938	80.4918	210.938	78.6689	210.938	80.2815	210.938	78.5743	210.938	80.0195	210.938	78.5564	210.938	79.7267	210.938	78.6131	210.938	79.4303	210.938	78.7373	210.938	79.1556	210.938	78.9209
218.262	80.7851	218.262	80.6926	218.262	80.8473	218.262	80.5755	218.262	80.8762	218.262	80.4401	218.262	80.872	218.262	80.2923	218.262	80.8396	218.262	80.1363	218.262	80.7881	218.262	79.9745	218.262	80.7296	218.262	79.8071	218.262	80.6753	218.262	79.6338	218.262	80.6313	218.262	79.4553	218.262	80.5943	218.262	79.2754	218.262	80.5517	218.262	79.102	218.262	80.4855	218.262	78.9478	218.262	80.3791	218.262	78.8282	218.262	80.2237	218.262	78.7583	218.262	80.0218	218.262	78.7486	218.262	79.7868	218.262	78.8032	218.262	79.539	218.262	78.919	218.262	79.3	218.262	79.0884
225.586	80.755	225.586	80.6715	225.586	80.8051	225.586	80.5606	225.586	80.8169	225.586	80.4277	225.586	80.7899	225.586	80.2766	225.586	80.7291	225.586	80.1087	225.586	80.6464	225.586	79.9241	225.586	80.5575	225.586	79.7233	225.586	80.4779	225.586	79.5095	225.586	80.416	225.586	79.2904	225.586	80.3691	225.586	79.0789	225.586	80.3238	225.586	78.8923	225.586	80.2615	225.586	78.7491	225.586	80.1661	225.586	78.6644	225.586	80.0305	225.586	78.645	225.586	79.8588	225.586	78.6884	225.586	79.6636	225.586	78.784	225.586	79.4608	225.586	78.9186	225.586	79.2638	225.586	79.081
232.91	80.8184	232.91	80.7375	232.91	80.8531	232.91	80.6203	232.91	80.8341	232.91	80.4752	232.91	80.7597	232.91	80.3072	232.91	80.6369	232.91	80.1177	232.91	80.4818	232.91	79.905	232.91	80.3173	232.91	79.6677	232.91	80.1665	232.91	79.407	232.91	80.0446	232.91	79.1305	232.91	79.9523	232.91	78.8535	232.91	79.875	232.91	78.5985	232.91	79.7903	232.91	78.3916	232.91	79.6784	232.91	78.2554	232.91	79.5304	232.91	78.2016	232.91	79.3514	232.91	78.2266	232.91	79.1555	232.91	78.3143	232.91	78.9589	232.91	78.444	232.91	78.772	232.91	78.5994
241.699	80.5788	241.699	80.4783	241.699	80.6347	241.699	80.3465	241.699	80.636	241.699	80.1961	241.699	80.5789	241.699	80.0361	241.699	80.4683	241.699	79.8696	241.699	80.3182	241.699	79.6936	241.699	80.1497	241.699	79.5012	241.699	79.9864	241.699	79.2849	241.699	79.8459	241.699	79.041	241.699	79.732	241.699	78.774	241.699	79.6322	241.699	78.4989	241.699	79.5227	241.699	78.2406	241.699	79.3795	241.699	78.0281	241.699	79.1901	241.699	77.8862	241.699	78.9591	241.699	77.8261	241.699	78.7065	241.699	77.8436	241.699	78.4591	241.699	77.9255	241.699	78.2394	241.699	78.0598
250.488	80.3711	250.488	80.2232	250.488	80.4695	250.488	80.041	250.488	80.5059	250.488	79.8398	250.488	80.4748	250.488	79.6314	250.488	80.3793	250.488	79.4221	250.488	80.233	250.488	79.213	250.488	80.058	250.488	79.0009	250.488	79.8811	250.488	78.7822	250.488	79.7253	250.488	78.5554	250.488	79.6006	250.488	78.3248	250.488	79.4985	250.488	78.1016	250.488	79.395	250.488	77.903	250.488	79.2618	250.488	77.7479	250.488	79.079	250.488	77.6512	250.488	78.8453	250.488	77.6191	250.488	78.5788	250.488	77.6492	250.488	78.3104	250.488	77.7361	250.488	78.0701	250.488	77.8767
259.277	80.7097	259.277	80.5775	259.277	80.7899	259.277	80.4109	259.277	80.8053	259.277	80.2279	259.277	80.7509	259.277	80.0417	259.277	80.631	259.277	79.8572	259.277	80.4589	259.277	79.6695	259.277	80.2547	259.277	79.4672	259.277	80.0408	259.277	79.2372	259.277	79.8369	259.277	78.9723	259.277	79.6547	259.277	78.676	259.277	79.4953	259.277	78.3661	259.277	79.35	259.277	78.0735	259.277	79.2039	259.277	77.8346	259.277	79.0418	259.277	77.6805	259.277	78.8534	259.277	77.6255	259.277	78.638	259.277	77.6653	259.277	78.405	259.277	77.7829	259.277	78.1718	259.277	77.9581
268.066	80.3548	268.066	80.2018	268.066	80.451	268.066	80.0072	268.066	80.4807	268.066	79.7884	268.066	80.4409	268.066	79.5626	268.066	80.3371	268.066	79.3426	268.066	80.1829	268.066	79.1332	268.066	79.9983	268.066	78.9304	268.066	79.8049	268.066	78.7236	268.066	79.6207	268.066	78.5031	268.066	79.4551	268.066	78.2671	268.066	79.3066	268.066	78.0269	268.066	79.1651	268.066	77.8074	268.066	79.0166	268.066	77.6389	268.066	78.8498	268.066	77.5453	268.066	78.6608	268.066	77.534	268.066	78.4551	268.066	77.5948	268.066	78.2451	268.066	77.71	268.066	78.0443	268.066	77.8632
276.855	80.2135	276.855	80.0272	276.855	80.3314	276.855	79.7877	276.855	80.3711	276.855	79.5138	276.855	80.3321	276.855	79.2252	276.855	80.2247	276.855	78.9391	276.855	80.0706	276.855	78.667	276.855	79.8969	276.855	78.4112	276.855	79.7264	276.855	78.1644	276.855	79.5667	276.855	77.9132	276.855	79.4066	276.855	77.6458	276.855	79.2236	276.855	77.362	276.855	78.9994	276.855	77.0807	276.855	78.734	276.855	76.841	276.855	78.447	276.855	76.6897	276.855	78.1648	276.855	76.6595	276.855	77.9023	276.855	76.7511	276.855	77.6555	276.855	76.934	276.855	77.4114	276.855	77.1658
287.109	80.1475	287.109	80.0685	287.109	80.161	287.109	79.931	287.109	80.1062	287.109	79.7434	287.109	79.989	287.109	79.5124	287.109	79.8245	287.109	79.2424	287.109	79.6374	287.109	78.9364	287.109	79.4579	287.109	78.5992	287.109	79.3157	287.109	78.2399	287.109	79.2299	287.109	77.8749	287.109	79.1973	287.109	77.5274	287.109	79.1894	287.109	77.2249	287.109	79.1604	287.109	76.9942	287.109	79.0665	287.109	76.8545	287.109	78.884	287.109	76.813	287.109	78.6189	287.109	76.8639	287.109	78.3034	287.109	76.9918	287.109	77.9787	287.109	77.1779	287.109	77.6758	287.109	77.4079
297.363	80.0731	297.363	79.9384	297.363	80.126	297.363	79.7375	297.363	80.089	297.363	79.4903	297.363	79.9643	297.363	79.2166	297.363	79.7659	297.363	78.9312	297.363	79.519	297.363	78.64	297.363	79.2561	297.363	78.3398	297.363	79.0096	297.363	78.0233	297.363	78.803	297.363	77.6891	297.363	78.6435	297.363	77.3503	297.363	78.522	297.363	77.0393	297.363	78.4202	297.363	76.8015	297.363	78.3192	297.363	76.6784	297.363	78.2067	297.363	76.6875	297.363	78.0803	297.363	76.8128	297.363	77.943	297.363	77.012	297.363	77.7968	297.363	77.2367	297.363	77.6358	297.363	77.4499
307.617	80.2089	307.617	80.0938	307.617	80.2567	307.617	79.9286	307.617	80.2222	307.617	79.7287	307.617	80.0971	307.617	79.5044	307.617	79.885	307.617	79.2595	307.617	79.6059	307.617	78.9915	307.617	79.2969	307.617	78.6927	307.617	79.0057	307.617	78.3543	307.617	78.7731	307.617	77.9714	307.617	78.6114	307.617	77.5495	307.617	78.4948	307.617	77.1122	307.617	78.3742	307.617	76.7048	307.617	78.2046	307.617	76.3879	307.617	77.9669	307.617	76.2138	307.617	77.6761	307.617	76.1963	307.617	77.3717	307.617	76.3004	307.617	77.0941	307.617	76.4683	307.617	76.86	307.617	76.6572
319.336	79.9015	319.336	79.721	319.336	80.0091	319.336	79.4945	319.336	80.0231	319.336	79.2485	319.336	79.9342	319.336	79.0022	319.336	79.7469	319.336	78.7627	319.336	79.4817	319.336	78.5252	319.336	79.1726	319.336	78.2762	319.336	78.862	319.336	78.0013	319.336	78.5892	319.336	77.692	319.336	78.3746	319.336	77.3518	319.336	78.2104	319.336	77.0002	319.336	78.067	319.336	76.6721	319.336	77.9101	319.336	76.4116	319.336	77.7186	319.336	76.257	319.336	77.4923	319.336	76.2223	319.336	77.2487	319.336	76.2908	319.336	77.011	319.336	76.4268	319.336	76.7937	319.336	76.599
329.59	79.6931	329.59	79.5303	329.59	79.7767	329.59	79.3089	329.59	79.7674	329.59	79.0514	329.59	79.6611	329.59	78.7777	329.59	79.4657	329.59	78.5	329.59	79.2008	329.59	78.2203	329.59	78.8972	329.59	77.932	329.59	78.591	329.59	77.6252	329.59	78.3129	329.59	77.2945	329.59	78.0747	329.59	76.9469	329.59	77.8644	329.59	76.6063	329.59	77.6562	329.59	76.3126	329.59	77.4315	329.59	76.1103	329.59	77.1924	329.59	76.0285	329.59	76.9626	329.59	76.062	329.59	76.7705	329.59	76.1712	329.59	76.6288	329.59	76.3034	329.59	76.523	329.59	76.4223
341.309	79.6428	341.309	79.4725	341.309	79.7231	341.309	79.2311	341.309	79.7008	341.309	78.9418	341.309	79.5723	341.309	78.6285	341.309	79.3455	341.309	78.3104	341.309	79.0441	341.309	77.9981	341.309	78.7092	341.309	77.6913	341.309	78.3946	341.309	77.3811	341.309	78.1478	341.309	77.0571	341.309	77.9842	341.309	76.7165	341.309	77.8728	341.309	76.3736	341.309	77.7522	341.309	76.0636	341.309	77.5677	341.309	75.836	341.309	77.3034	341.309	75.7316	341.309	76.9935	341.309	75.7568	341.309	76.7013	341.309	75.8749	341.309	76.4749	341.309	76.0287	341.309	76.3129	341.309	76.1757
353.027	79.5304	353.027	79.3289	353.027	79.6367	353.027	79.059	353.027	79.624	353.027	78.7445	353.027	79.4775	353.027	78.4032	353.027	79.1984	353.027	78.0462	353.027	78.8114	353.027	77.6797	353.027	78.3713	353.027	77.3073	353.027	77.959	353.027	76.9305	353.027	77.6581	353.027	76.5493	353.027	77.5104	353.027	76.1657	353.027	77.4833	353.027	75.7945	353.027	77.4866	353.027	75.4757	353.027	77.4247	353.027	75.2718	353.027	77.2443	353.027	75.2341	353.027	76.9552	353.027	75.3557	353.027	76.6234	353.027	75.565	353.027	76.331	353.027	75.777	353.027	76.1173	353.027	75.9524
366.211	79.2857	366.211	79.1617	366.211	79.3424	366.211	79.0075	366.211	79.3	366.211	78.8523	366.211	79.1415	366.211	78.7032	366.211	78.8693	366.211	78.5399	366.211	78.5075	366.211	78.3227	366.211	78.1024	366.211	78.0127	366.211	77.7192	366.211	77.5907	366.211	77.4261	366.211	77.067	366.211	77.2598	366.211	76.4764	366.211	77.1943	366.211	75.862	366.211	77.147	366.211	75.2608	366.211	77.0212	366.211	74.7098	366.211	76.7526	366.211	74.2653	366.211	76.3356	366.211	74.0035	366.211	75.8264	366.211	73.9739	366.211	75.3113	366.211	74.1516	366.211	74.8518	366.211	74.462
379.395	79.7705	379.395	79.5149	379.395	79.9232	379.395	79.2057	379.395	79.9388	379.395	78.899	379.395	79.801	379.395	78.6403	379.395	79.5107	379.395	78.445	379.395	79.0871	379.395	78.2904	379.395	78.5694	379.395	78.1254	379.395	78.0204	379.395	77.8914	379.395	77.5212	379.395	77.5453	379.395	77.148	379.395	77.0774	379.395	76.9303	379.395	76.5245	379.395	76.8294	379.395	75.9683	379.395	76.7635	379.395	75.513	379.395	76.6589	379.395	75.2392	379.395	76.4864	379.395	75.1641	379.395	76.2629	379.395	75.242	379.395	76.0266	379.395	75.4038	379.395	75.8038	379.395	75.5972
392.578	79.325	392.578	79.0331	392.578	79.5233	392.578	78.6982	392.578	79.593	392.578	78.3817	392.578	79.5135	392.578	78.1383	392.578	79.2798	392.578	77.9879	392.578	78.909	392.578	77.8997	392.578	78.4463	392.578	77.807	392.578	77.9669	392.578	77.6395	392.578	77.5601	392.578	77.3517	392.578	77.289	392.578	76.9382	392.578	77.1466	392.578	76.4378	392.578	77.0564	392.578	75.9269	392.578	76.9232	392.578	75.5	392.578	76.6888	392.578	75.2325	392.578	76.362	392.578	75.1438	392.578	76.0133	392.578	75.1898	392.578	75.7281	392.578	75.2964	392.578	75.5393	392.578	75.4117
405.762	79.3184	405.762	78.9393	405.762	79.5522	405.762	78.4725	405.762	79.6035	405.762	77.9975	405.762	79.4557	405.762	77.6044	405.762	79.1152	405.762	77.361	405.762	78.6167	405.762	77.2698	405.762	78.0267	405.762	77.2604	405.762	77.4437	405.762	77.2271	405.762	76.9861	405.762	77.078	405.762	76.7449	405.762	76.7637	405.762	76.7203	405.762	76.2888	405.762	76.8082	405.762	75.7156	405.762	76.8618	405.762	75.1569	405.762	76.7659	405.762	74.7433	405.762	76.4798	405.762	74.5551	405.762	76.0501	405.762	74.5736	405.762	75.5892	405.762	74.7162	405.762	75.2039	405.762	74.9236
420.41	80.2109	420.41	79.8098	420.41	80.4251	420.41	79.2664	420.41	80.4297	420.41	78.6524	420.41	80.2194	420.41	78.0666	420.41	79.8028	420.41	77.6098	420.41	79.2018	420.41	77.3333	420.41	78.4567	420.41	77.2021	420.41	77.6457	420.41	77.1185	420.41	76.9071	420.41	76.98	420.41	76.4172	420.41	76.7189	420.41	76.2793	420.41	76.3172	420.41	76.4205	420.41	75.8121	420.41	76.6437	420.41	75.2975	420.41	76.7633	420.41	74.9034	420.41	76.6813	420.41	74.7325	420.41	76.4009	420.41	74.7892	420.41	76.0073	420.41	74.9933	420.41	75.6107	420.41	75.272
435.059	79.7263	435.059	79.3345	435.059	79.9485	435.059	78.8134	435.059	79.9799	435.059	78.2274	435.059	79.8115	435.059	77.6635	435.059	79.4436	435.059	77.2131	435.059	78.886	435.059	76.9385	435.059	78.1653	435.059	76.8444	435.059	77.3465	435.059	76.8786	435.059	76.5686	435.059	76.9569	435.059	76.0498	435.059	76.995	435.059	75.9663	435.059	76.9334	435.059	76.2666	435.059	76.7555	435.059	76.7037	435.059	76.497	435.059	77.0433	435.059	76.2416	435.059	77.1745	435.059	76.0879	435.059	77.1019	435.059	76.0886	435.059	76.9003	435.059	76.2192	435.059	76.6559	435.059	76.421
451.172	81.0805	451.172	80.6328	451.172	81.3319	451.172	79.9996	451.172	81.3762	451.172	79.2102	451.172	81.1986	451.172	78.3335	451.172	80.7891	451.172	77.4806	451.172	80.1529	451.172	76.7635	451.172	79.3131	451.172	76.2301	451.172	78.3062	451.172	75.8552	451.172	77.1951	451.172	75.5977	451.172	76.1291	451.172	75.445	451.172	75.4005	451.172	75.3984	451.172	75.2933	451.172	75.4422	451.172	75.741	451.172	75.5463	451.172	76.3773	451.172	75.698	451.172	76.8987	451.172	75.9122	451.172	77.1873	451.172	76.2008	451.172	77.2454	451.172	76.5383	451.172	77.1202	451.172	76.8659
465.82	80.9338	465.82	80.529	465.82	81.1391	465.82	79.9471	465.82	81.1306	465.82	79.2234	465.82	80.9094	465.82	78.4193	465.82	80.4997	465.82	77.6296	465.82	79.9419	465.82	76.9668	465.82	79.2633	465.82	76.5124	465.82	78.4586	465.82	76.2628	465.82	77.5218	465.82	76.131	465.82	76.5221	465.82	76.0078	465.82	75.6604	465.82	75.828	465.82	75.1874	465.82	75.5989	465.82	75.1664	465.82	75.3872	465.82	75.3988	465.82	75.2741	465.82	75.6432	465.82	75.2971	465.82	75.7833	465.82	75.4243	465.82	75.8196	465.82	75.5826	465.82	75.79	465.82	75.7113
483.398	80.7998	483.398	80.502	483.398	80.8889	483.398	79.991	483.398	80.7884	483.398	79.2844	483.398	80.5305	483.398	78.4359	483.398	80.1543	483.398	77.5405	483.398	79.6889	483.398	76.7133	483.398	79.1355	483.398	76.0411	483.398	78.4658	483.398	75.5492	483.398	77.6427	483.398	75.2143	483.398	76.6661	483.398	74.9996	483.398	75.6538	483.398	74.8748	483.398	74.9192	483.398	74.8288	483.398	74.8099	483.398	74.8814	483.398	75.2722	483.398	75.0766	483.398	75.9007	483.398	75.4327	483.398	76.3953	483.398	75.8903	483.398	76.6753	483.398	76.3282	483.398	76.7522	483.398	76.6337
499.512	80.5073	499.512	80.2015	499.512	80.6299	499.512	79.7162	499.512	80.5751	499.512	79.0713	499.512	80.3571	499.512	78.3167	499.512	80.0001	499.512	77.5357	499.512	79.5323	499.512	76.8206	499.512	78.9739	499.512	76.224	499.512	78.3272	499.512	75.7329	499.512	77.5815	499.512	75.3019	499.512	76.7361	499.512	74.9099	499.512	75.8508	499.512	74.5833	499.512	75.1102	499.512	74.3795	499.512	74.7926	499.512	74.3587	499.512	75.0051	499.512	74.5599	499.512	75.513	499.512	74.9666	499.512	76.0011	499.512	75.4825	499.512	76.3104	499.512	75.9632	499.512	76.4072	499.512	76.2893
517.09	80.8077	517.09	80.4164	517.09	81.0033	517.09	79.8583	517.09	80.9949	517.09	79.179	517.09	80.797	517.09	78.4381	517.09	80.4417	517.09	77.7039	517.09	79.9642	517.09	77.0381	517.09	79.386	517.09	76.469	517.09	78.7106	517.09	75.976	517.09	77.9297	517.09	75.5109	517.09	77.0361	517.09	75.0495	517.09	76.0511	517.09	74.6388	517.09	75.0936	517.09	74.3967	517.09	74.4648	517.09	74.4515	517.09	74.5076	517.09	74.8511	517.09	75.1676	517.09	75.5076	517.09	76.0169	517.09	76.2303	517.09	76.7068	517.09	76.8165	517.09	77.0901	517.09	77.1245
536.133	80.4423	536.133	80.0517	536.133	80.515	536.133	79.3463	536.133	80.2977	536.133	78.3846	536.133	79.8428	536.133	77.3205	536.133	79.2285	536.133	76.4118	536.133	78.5552	536.133	75.9032	536.133	77.9241	536.133	75.8148	536.133	77.3987	536.133	75.9264	536.133	76.9725	536.133	75.9862	536.133	76.5724	536.133	75.8574	536.133	76.0989	536.133	75.5317	536.133	75.4827	536.133	75.094	536.133	74.7689	536.133	74.6994	536.133	74.2179	536.133	74.5519	536.133	74.2066	536.133	74.7991	536.133	74.7707	536.133	75.3533	536.133	75.5141	536.133	75.9123	536.133	76.0498	536.133	76.1897
555.176	80.9772	555.176	80.6028	555.176	81.0577	555.176	79.9307	555.176	80.8509	555.176	78.9714	555.176	80.3754	555.176	77.7837	555.176	79.6818	555.176	76.5188	555.176	78.8572	555.176	75.429	555.176	78.0001	555.176	74.741	555.176	77.1913	555.176	74.4471	555.176	76.4793	555.176	74.3254	555.176	75.8658	555.176	74.1621	555.176	75.3072	555.176	73.8649	555.176	74.7422	555.176	73.4581	555.176	74.119	555.176	73.0971	555.176	73.4859	555.176	73.0802	555.176	73.1596	555.176	73.6192	555.176	73.5425	555.176	74.4973	555.176	74.4427	555.176	75.2491	555.176	75.2392	555.176	75.5377
574.219	81.8278	574.219	81.4895	574.219	81.8777	574.219	80.8427	574.219	81.6604	574.219	79.8706	574.219	81.2009	574.219	78.5789	574.219	80.5238	574.219	77.0535	574.219	79.6466	574.219	75.5641	574.219	78.5994	574.219	74.5515	574.219	77.4786	574.219	74.1907	574.219	76.4641	574.219	74.1294	574.219	75.7072	574.219	73.9781	574.219	75.203	574.219	73.6261	574.219	74.845	574.219	73.1456	574.219	74.5292	574.219	72.6543	574.219	74.1435	574.219	72.3019	574.219	73.5814	574.219	72.2829	574.219	72.9281	574.219	72.6204	574.219	72.5794	574.219	72.9906	574.219	72.7521	574.219	73.0358
594.727	81.3914	594.727	81.1198	594.727	81.4391	594.727	80.6375	594.727	81.252	594.727	79.9214	594.727	80.8523	594.727	78.9051	594.727	80.2854	594.727	77.5288	594.727	79.5732	594.727	75.8528	594.727	78.6909	594.727	74.2412	594.727	77.6092	594.727	73.3761	594.727	76.3604	594.727	73.4696	594.727	75.1031	594.727	73.8541	594.727	74.1726	594.727	73.9725	594.727	73.8897	594.727	73.7899	594.727	74.1353	594.727	73.5455	594.727	74.5057	594.727	73.4453	594.727	74.7873	594.727	73.5238	594.727	74.9427	594.727	73.7343	594.727	74.928	594.727	74.0374	594.727	74.7211	594.727	74.3904
615.234	81.1058	615.234	80.8998	615.234	81.0602	615.234	80.4134	615.234	80.8057	615.234	79.6682	615.234	80.3652	615.234	78.7394	615.234	79.7458	615.234	77.718	615.234	78.9679	615.234	76.6668	615.234	78.0675	615.234	75.6703	615.234	77.0787	615.234	74.9764	615.234	76.0479	615.234	74.8253	615.234	75.0694	615.234	74.9676	615.234	74.2841	615.234	74.9188	615.234	73.7669	615.234	74.4706	615.234	73.3986	615.234	73.7432	615.234	73.0229	615.234	73.1412	615.234	72.7779	615.234	73.1512	615.234	73.025	615.234	73.7572	615.234	73.7398	615.234	74.4253	615.234	74.4351	615.234	74.7035
637.207	81.1075	637.207	80.8737	637.207	81.1145	637.207	80.4249	637.207	80.8846	637.207	79.7612	637.207	80.444	637.207	78.875	637.207	79.8565	637.207	77.7535	637.207	79.1484	637.207	76.4001	637.207	78.2579	637.207	74.9434	637.207	77.1382	637.207	73.8098	637.207	75.8814	637.207	73.4223	637.207	74.6696	637.207	73.5206	637.207	73.6484	637.207	73.615	637.207	72.9812	637.207	73.5841	637.207	72.9002	637.207	73.5325	637.207	73.3725	637.207	73.5908	637.207	74.0346	637.207	73.8716	637.207	74.6103	637.207	74.3746	637.207	75.0222	637.207	74.9022	637.207	75.2456	637.207	75.2209
659.18	80.6468	659.18	80.5039	659.18	80.5288	659.18	80.0584	659.18	80.2207	659.18	79.3034	659.18	79.8009	659.18	78.2808	659.18	79.2964	659.18	77.0634	659.18	78.6845	659.18	75.684	659.18	77.997	659.18	74.1059	659.18	77.3281	659.18	72.4761	659.18	76.6497	659.18	71.6538	659.18	75.7086	659.18	72.3148	659.18	74.2188	659.18	73.4342	659.18	72.2707	659.18	73.9999	659.18	70.9702	659.18	73.8038	659.18	71.5514	659.18	73.1624	659.18	72.977	659.18	72.721	659.18	74.0311	659.18	72.8845	659.18	74.4289	659.18	73.4084	659.18	74.3168	659.18	73.9329
682.617	79.665	682.617	79.6322	682.617	79.6067	682.617	79.5249	682.617	79.3622	682.617	79.2673	682.617	78.8575	682.617	78.7548	682.617	78.1046	682.617	77.9064	682.617	77.1901	682.617	76.675	682.617	76.2772	682.617	75.0402	682.617	75.6208	682.617	73.0688	682.617	75.3665	682.617	71.3429	682.617	75.2655	682.617	71.2693	682.617	74.7826	682.617	72.7332	682.617	73.3789	682.617	74.2049	682.617	70.9518	682.617	75.0998	682.617	69.5252	682.617	75.4895	682.617	71.3727	682.617	75.6739	682.617	73.8286	682.617	75.9319	682.617	75.5416	682.617	76.2899	682.617	76.3914	682.617	76.5425
707.52	80.3069	707.52	80.0536	707.52	80.4686	707.52	79.7909	707.52	80.438	707.52	79.5274	707.52	80.0833	707.52	79.1607	707.52	79.2716	707.52	78.5747	707.52	78.0295	707.52	77.7507	707.52	76.7024	707.52	76.7183	707.52	75.8048	707.52	75.3775	707.52	75.4891	707.52	73.4284	707.52	75.5062	707.52	71.3301	707.52	75.5468	707.52	71.8383	707.52	74.9492	707.52	74.0106	707.52	72.5259	707.52	75.409	707.52	68.2843	707.52	76.0215	707.52	71.9638	707.52	76.6024	707.52	76.3951	707.52	77.6431	707.52	78.6268	707.52	78.7999	707.52	79.538	707.52	79.5311
732.422	82.3992	732.422	81.5861	732.422	82.7851	732.422	80.4964	732.422	82.6848	732.422	79.5177	732.422	82.1043	732.422	79.1896	732.422	81.1211	732.422	79.4976	732.422	79.7359	732.422	79.7399	732.422	77.7534	732.422	79.2357	732.422	75.3105	732.422	77.737	732.422	74.3069	732.422	75.5357	732.422	75.911	732.422	73.0518	732.422	77.6085	732.422	71.2603	732.422	77.9334	732.422	72.8937	732.422	76.139	732.422	75.7964	732.422	70.3489	732.422	77.6017	732.422	60.4923	732.422	78.3525	732.422	73.9278	732.422	78.7691	732.422	78.1298	732.422	79.3767	732.422	79.7042	732.422	79.8961
757.324	83.4799	757.324	82.5348	757.324	83.9101	757.324	81.1961	757.324	83.8452	757.324	79.7843	757.324	83.3559	757.324	78.7945	757.324	82.4462	757.324	78.6336	757.324	81.0268	757.324	79.0104	757.324	78.9683	757.324	78.9207	757.324	76.0172	757.324	77.5247	757.324	72.5487	757.324	74.5707	757.324	73.316	757.324	71.0207	757.324	76.7065	757.324	69.9559	757.324	78.596	757.324	71.2215	757.324	78.6522	757.324	73.854	757.324	76.5027	757.324	77.0886	757.324	70.0041	757.324	79.5214	757.324	64.56	757.324	80.8906	757.324	75.3898	757.324	81.3573	757.324	79.2876	757.324	80.9371
785.156	84.0001	785.156	83.6142	785.156	83.9702	785.156	82.8348	785.156	83.5773	785.156	81.6027	785.156	83.1046	785.156	79.942	785.156	82.7485	785.156	78.609	785.156	82.1818	785.156	78.8559	785.156	80.8598	785.156	79.8061	785.156	78.3054	785.156	79.949	785.156	73.7258	785.156	78.6954	785.156	67.7521	785.156	75.5764	785.156	73.4419	785.156	69.3054	785.156	77.9307	785.156	62.3921	785.156	79.622	785.156	68.8913	785.156	78.8479	785.156	72.7514	785.156	74.6372	785.156	75.9396	785.156	62.5587	785.156	78.6994	785.156	74.5871	785.156	80.4711	785.156	79.3532	785.156	80.8496
811.523	83.906	811.523	83.6215	811.523	83.4827	811.523	82.8726	811.523	82.4215	811.523	81.9115	811.523	81.2628	811.523	80.7189	811.523	80.7492	811.523	79.3151	811.523	80.7981	811.523	78.3978	811.523	80.5673	811.523	78.4654	811.523	79.5052	811.523	78.5799	811.523	77.2747	811.523	77.9316	811.523	72.8859	811.523	76.4391	811.523	65.5154	811.523	74.1578	811.523	72.2789	811.523	70.5635	811.523	76.809	811.523	65.2325	811.523	78.1083	811.523	67.7342	811.523	76.7877	811.523	72.8207	811.523	71.7444	811.523	75.8129	811.523	62.4588	811.523	77.0585	811.523	72.7314	811.523	76.3706
840.82	83.3928	840.82	84.0031	840.82	82.0174	840.82	83.6896	840.82	80.7261	840.82	82.6149	840.82	80.4438	840.82	81.0015	840.82	80.7217	840.82	79.0551	840.82	80.7984	840.82	77.5652	840.82	80.4714	840.82	77.867	840.82	79.6892	840.82	78.8262	840.82	78.1272	840.82	78.9451	840.82	75.2061	840.82	78.2181	840.82	70.3344	840.82	77.0504	840.82	71.5024	840.82	75.3661	840.82	76.4629	840.82	72.5915	840.82	78.4438	840.82	69.4262	840.82	77.8421	840.82	71.345	840.82	74.311	840.82	74.598	840.82	63.9441	840.82	75.6046	840.82	67.2474	840.82	73.8755
870.117	82.4534	870.117	83.157	870.117	81.4249	870.117	83.1683	870.117	80.46	870.117	82.4511	870.117	79.5753	870.117	81.1686	870.117	78.8252	870.117	79.5189	870.117	78.4503	870.117	77.7892	870.117	78.379	870.117	76.858	870.117	78.0873	870.117	77.4374	870.117	77.0822	870.117	78.2895	870.117	75.0675	870.117	78.1345	870.117	71.5667	870.117	76.8606	870.117	69.9837	870.117	74.9082	870.117	74.716	870.117	72.0614	870.117	77.3923	870.117	68.4095	870.117	77.4665	870.117	69.2695	870.117	75.0101	870.117	71.3224	870.117	68.2821	870.117	71.059	870.117	53.1854	870.117	68.043
900.879	82.5446	900.879	82.8728	900.879	82.1744	900.879	83.1912	900.879	81.3794	900.879	82.9068	900.879	80.2501	900.879	81.5628	900.879	78.9594	900.879	79.0056	900.879	77.5373	900.879	75.3879	900.879	76.3284	900.879	73.0309	900.879	75.8836	900.879	75.0912	900.879	76.3022	900.879	77.2213	900.879	76.3056	900.879	77.643	900.879	73.4773	900.879	76.6351	900.879	62.1064	900.879	74.7109	900.879	71.6692	900.879	72.2759	900.879	77.3139	900.879	68.8462	900.879	79.2521	900.879	64.7903	900.879	78.4357	900.879	67.7212	900.879	73.7529	900.879	70.3592	900.879	61.3884	900.879	68.5844
933.105	83.1886	933.105	82.9246	933.105	82.7605	933.105	82.1887	933.105	81.9571	933.105	81.6774	933.105	81.0446	933.105	81.4618	933.105	79.8801	933.105	80.681	933.105	78.3816	933.105	78.6482	933.105	77.1659	933.105	75.2633	933.105	77.0644	933.105	71.2755	933.105	77.327	933.105	70.3861	933.105	77.1238	933.105	72.7849	933.105	76.3385	933.105	74.4195	933.105	74.0845	933.105	74.5378	933.105	71.02	933.105	74.221	933.105	74.2002	933.105	73.7127	933.105	77.027	933.105	71.5924	933.105	77.5471	933.105	69.2637	933.105	75.6279	933.105	69.2231	933.105	69.8927	933.105	66.1452
965.332	83.6581	965.332	83.5056	965.332	82.7951	965.332	82.6195	965.332	81.6544	965.332	81.7637	965.332	81.3505	965.332	81.3925	965.332	81.0406	965.332	80.9875	965.332	79.78	965.332	79.8387	965.332	77.6621	965.332	77.8706	965.332	75.0341	965.332	76.0319	965.332	72.9538	965.332	75.7019	965.332	72.6417	965.332	76.5109	965.332	71.7269	965.332	76.9184	965.332	67.3276	965.332	75.8401	965.332	69.231	965.332	73.2201	965.332	74.707	965.332	69.649	965.332	77.0509	965.332	66.6596	965.332	76.732	965.332	68.1654	965.332	73.2087	965.332	71.8541	965.332	71.0434	965.332	73.0651
1,000.49	82.9877	1,000.49	83.4443	1,000.49	82.3762	1,000.49	83.1212	1,000.49	82.1633	1,000.49	82.0135	1,000.49	81.8455	1,000.49	80.6467	1,000.49	80.6982	1,000.49	79.6194	1,000.49	78.685	1,000.49	78.845	1,000.49	76.4927	1,000.49	77.761	1,000.49	75.0138	1,000.49	75.6692	1,000.49	73.9298	1,000.49	72.7386	1,000.49	71.9252	1,000.49	73.3636	1,000.49	69.6063	1,000.49	75.8811	1,000.49	68.5128	1,000.49	76.0874	1,000.49	67.4856	1,000.49	74.7555	1,000.49	70.7557	1,000.49	74.3454	1,000.49	74.0456	1,000.49	73.9038	1,000.49	75.03	1,000.49	72.1271	1,000.49	74.5202	1,000.49	70.7812	1,000.49	72.5498	1,000.49	70.4687
1,035.64	82.764	1,035.64	83.7267	1,035.64	81.6239	1,035.64	83.5568	1,035.64	81.5448	1,035.64	82.3794	1,035.64	81.5271	1,035.64	80.9033	1,035.64	80.656	1,035.64	79.7686	1,035.64	79.41	1,035.64	78.683	1,035.64	78.2469	1,035.64	77.1166	1,035.64	76.665	1,035.64	75.2246	1,035.64	74.4987	1,035.64	73.4904	1,035.64	73.5352	1,035.64	72.9862	1,035.64	73.4373	1,035.64	74.905	1,035.64	71.5836	1,035.64	76.0268	1,035.64	71.3486	1,035.64	74.8538	1,035.64	73.7288	1,035.64	72.7001	1,035.64	74.4445	1,035.64	71.8295	1,035.64	73.6762	1,035.64	71.528	1,035.64	72.3364	1,035.64	71.6966	1,035.64	72.0242	1,035.64	72.008
1,072.27	82.7323	1,072.27	83.1249	1,072.27	81.7801	1,072.27	82.8126	1,072.27	81.3368	1,072.27	82.0144	1,072.27	81.3011	1,072.27	81.0657	1,072.27	80.2373	1,072.27	80.2828	1,072.27	78.4943	1,072.27	79.6449	1,072.27	77.4647	1,072.27	78.6594	1,072.27	76.7734	1,072.27	77.1705	1,072.27	75.8305	1,072.27	76.7181	1,072.27	74.5882	1,072.27	76.39	1,072.27	73.4358	1,072.27	73.8723	1,072.27	71.4357	1,072.27	72.9992	1,072.27	67.1202	1,072.27	74.5268	1,072.27	69.8101	1,072.27	73.5573	1,072.27	73.6598	1,072.27	72.5683	1,072.27	73.4514	1,072.27	73.0556	1,072.27	70.2065	1,072.27	73.009	1,072.27	71.4005	1,072.27	72.8268
1,108.89	81.8743	1,108.89	82.7027	1,108.89	81.8881	1,108.89	83.2806	1,108.89	81.569	1,108.89	82.4009	1,108.89	79.8659	1,108.89	80.3105	1,108.89	77.7823	1,108.89	78.8749	1,108.89	78.3505	1,108.89	79.3455	1,108.89	80.0838	1,108.89	80.0581	1,108.89	80.624	1,108.89	79.7711	1,108.89	79.7105	1,108.89	78.3148	1,108.89	77.7603	1,108.89	76.9462	1,108.89	75.8961	1,108.89	76.9599	1,108.89	74.3379	1,108.89	76.3144	1,108.89	69.5556	1,108.89	74.8348	1,108.89	69.0977	1,108.89	72.2748	1,108.89	75.4645	1,108.89	67.7708	1,108.89	76.3297	1,108.89	67.9258	1,108.89	72.6944	1,108.89	72.0368	1,108.89	70.4593	1,108.89	73.3692
1,148.44	81.1837	1,148.44	82.6503	1,148.44	81.0165	1,148.44	82.9758	1,148.44	81.976	1,148.44	81.8075	1,148.44	80.963	1,148.44	80.3632	1,148.44	78.8429	1,148.44	79.7292	1,148.44	78.9501	1,148.44	79.2935	1,148.44	79.3044	1,148.44	79.0072	1,148.44	78.8274	1,148.44	78.5964	1,148.44	77.4299	1,148.44	76.9097	1,148.44	75.6194	1,148.44	75.7561	1,148.44	74.8958	1,148.44	75.6558	1,148.44	75.06	1,148.44	73.1509	1,148.44	74.0386	1,148.44	70.3908	1,148.44	70.5843	1,148.44	70.2382	1,148.44	72.4824	1,148.44	70.8315	1,148.44	74.948	1,148.44	71.684	1,148.44	72.9033	1,148.44	73.0473	1,148.44	67.8722	1,148.44	71.6798
1,189.45	81.4167	1,189.45	81.8987	1,189.45	82.5417	1,189.45	83.1339	1,189.45	81.6851	1,189.45	82.2541	1,189.45	78.7826	1,189.45	79.2834	1,189.45	79.7572	1,189.45	76.9261	1,189.45	81.0964	1,189.45	77.8999	1,189.45	80.7711	1,189.45	79.1427	1,189.45	79.3506	1,189.45	79.678	1,189.45	76.7654	1,189.45	78.6033	1,189.45	74.3792	1,189.45	75.802	1,189.45	74.2865	1,189.45	75.2574	1,189.45	74.292	1,189.45	74.0165	1,189.45	72.9266	1,189.45	70.4671	1,189.45	71.3265	1,189.45	69.7537	1,189.45	71.9832	1,189.45	71.0084	1,189.45	72.6796	1,189.45	71.3893	1,189.45	73.5575	1,189.45	71.5905	1,189.45	69.9682	1,189.45	68.0628
1,230.47	82.0502	1,230.47	82.0402	1,230.47	81.5454	1,230.47	82.0965	1,230.47	80.5841	1,230.47	82.0032	1,230.47	80.2777	1,230.47	81.2534	1,230.47	80.3369	1,230.47	80.1628	1,230.47	79.6596	1,230.47	78.5715	1,230.47	78.8353	1,230.47	75.1588	1,230.47	77.8193	1,230.47	72.5633	1,230.47	75.8178	1,230.47	73.1051	1,230.47	72.5248	1,230.47	71.1407	1,230.47	70.1851	1,230.47	71.7877	1,230.47	71.0955	1,230.47	74.3122	1,230.47	72.3084	1,230.47	74.3075	1,230.47	71.2704	1,230.47	72.2104	1,230.47	71.4294	1,230.47	69.4759	1,230.47	72.4478	1,230.47	69.3942	1,230.47	69.5075	1,230.47	71.1093	1,230.47	67.7632	1,230.47	70.2154
1,274.41	82.5693	1,274.41	82.3275	1,274.41	82.0792	1,274.41	82.6578	1,274.41	80.0206	1,274.41	82.2761	1,274.41	80.0682	1,274.41	80.014	1,274.41	81.3022	1,274.41	77.1342	1,274.41	80.1316	1,274.41	77.065	1,274.41	77.0313	1,274.41	76.3076	1,274.41	74.8534	1,274.41	75.5449	1,274.41	75.0443	1,274.41	77.1639	1,274.41	73.8403	1,274.41	75.042	1,274.41	68.9468	1,274.41	70.2839	1,274.41	62.2771	1,274.41	71.4642	1,274.41	65.9799	1,274.41	72.0222	1,274.41	70.213	1,274.41	73.3214	1,274.41	73.6462	1,274.41	72.4043	1,274.41	71.6028	1,274.41	71.7833	1,274.41	69.6996	1,274.41	72.3112	1,274.41	71.6906	1,274.41	70.2861
1,319.82	83.1244	1,319.82	83.3786	1,319.82	81.4065	1,319.82	82.999	1,319.82	80.0982	1,319.82	82.3203	1,319.82	80.8358	1,319.82	80.5085	1,319.82	80.1723	1,319.82	77.6166	1,319.82	78.2718	1,319.82	76.0505	1,319.82	77.3454	1,319.82	75.848	1,319.82	77.3932	1,319.82	73.5735	1,319.82	77.0002	1,319.82	72.6247	1,319.82	75.8862	1,319.82	72.1376	1,319.82	74.3086	1,319.82	67.1756	1,319.82	72.0019	1,319.82	64.5095	1,319.82	68.2791	1,319.82	70.0781	1,319.82	71.1801	1,319.82	72.9698	1,319.82	72.8829	1,319.82	71.2162	1,319.82	72.0638	1,319.82	69.6216	1,319.82	70.6811	1,319.82	71.5117	1,319.82	70.7111	1,319.82	71.2795
1,366.7	83.2106	1,366.7	83.7988	1,366.7	80.9818	1,366.7	83.3578	1,366.7	80.5825	1,366.7	82.8887	1,366.7	81.5239	1,366.7	82.2757	1,366.7	80.8805	1,366.7	80.9453	1,366.7	80.1711	1,366.7	77.1371	1,366.7	79.0989	1,366.7	71.681	1,366.7	77.9184	1,366.7	68.5174	1,366.7	78.1307	1,366.7	67.4292	1,366.7	77.6406	1,366.7	64.7014	1,366.7	75.8602	1,366.7	61.2331	1,366.7	74.7204	1,366.7	62.4309	1,366.7	68.7993	1,366.7	70.4721	1,366.7	69.5294	1,366.7	75.1697	1,366.7	72.6746	1,366.7	74.4726	1,366.7	75.1053	1,366.7	70.1508	1,366.7	71.7875	1,366.7	72.4476	1,366.7	71.0866	1,366.7	72.514
1,413.57	82.7276	1,413.57	84.2037	1,413.57	80.9106	1,413.57	84.1845	1,413.57	80.5824	1,413.57	82.9976	1,413.57	80.6892	1,413.57	82.3951	1,413.57	81.2305	1,413.57	81.4455	1,413.57	80.7505	1,413.57	76.8262	1,413.57	79.0805	1,413.57	71.9259	1,413.57	77.3354	1,413.57	73.4725	1,413.57	75.9461	1,413.57	70.475	1,413.57	73.9907	1,413.57	65.6855	1,413.57	73.2883	1,413.57	67.7327	1,413.57	73.2765	1,413.57	65.4194	1,413.57	70.7272	1,413.57	67.2539	1,413.57	67.6422	1,413.57	74.756	1,413.57	72.0725	1,413.57	75.2066	1,413.57	73.0775	1,413.57	67.2274	1,413.57	69.8813	1,413.57	69.5247	1,413.57	70.1118	1,413.57	69.1113
1,463.38	82.1179	1,463.38	83.8908	1,463.38	80.1426	1,463.38	83.819	1,463.38	80.5018	1,463.38	82.9191	1,463.38	81.0171	1,463.38	81.8148	1,463.38	81.2895	1,463.38	79.4273	1,463.38	80.2602	1,463.38	76.7743	1,463.38	78.7553	1,463.38	77.9075	1,463.38	77.2953	1,463.38	75.506	1,463.38	75.7431	1,463.38	67.8863	1,463.38	74.3982	1,463.38	68.1542	1,463.38	71.5103	1,463.38	72.5014	1,463.38	70.7891	1,463.38	70.1913	1,463.38	72.057	1,463.38	57.778	1,463.38	68.9896	1,463.38	72.3515	1,463.38	70.4432	1,463.38	75.3168	1,463.38	73.0294	1,463.38	68.6204	1,463.38	71.7717	1,463.38	68.875	1,463.38	67.6768	1,463.38	70.548
1,516.11	81.3931	1,516.11	82.9403	1,516.11	79.0018	1,516.11	83.1549	1,516.11	78.5393	1,516.11	82.937	1,516.11	80.1638	1,516.11	80.9666	1,516.11	80.3889	1,516.11	75.995	1,516.11	79.2482	1,516.11	74.295	1,516.11	78.9824	1,516.11	73.6188	1,516.11	78.6943	1,516.11	71.151	1,516.11	77.2237	1,516.11	67.2332	1,516.11	74.3536	1,516.11	64.8526	1,516.11	72.2074	1,516.11	71.0233	1,516.11	71.5609	1,516.11	72.2234	1,516.11	73.9076	1,516.11	69.6428	1,516.11	73.345	1,516.11	65.138	1,516.11	66.2685	1,516.11	73.9614	1,516.11	71.5137	1,516.11	70.5246	1,516.11	70.1714	1,516.11	65.0625	1,516.11	68.4515	1,516.11	69.754
1,568.85	79.2463	1,568.85	81.3917	1,568.85	76.4132	1,568.85	81.9618	1,568.85	76.2489	1,568.85	82.354	1,568.85	78.305	1,568.85	80.9488	1,568.85	80.4435	1,568.85	76.8599	1,568.85	80.1224	1,568.85	75.2761	1,568.85	79.4481	1,568.85	72.8323	1,568.85	78.832	1,568.85	62.2812	1,568.85	77.5374	1,568.85	64.8458	1,568.85	74.6157	1,568.85	65.8417	1,568.85	72.4851	1,568.85	64.7304	1,568.85	70.7897	1,568.85	72.8263	1,568.85	73.1219	1,568.85	72.6369	1,568.85	72.5142	1,568.85	66.0155	1,568.85	70.6586	1,568.85	70.9433	1,568.85	68.5426	1,568.85	68.4671	1,568.85	70.3	1,568.85	61.7749	1,568.85	66.5704	1,568.85	70.4494
1,624.51	77.4058	1,624.51	81.6348	1,624.51	73.6629	1,624.51	81.6731	1,624.51	72.5691	1,624.51	81.3235	1,624.51	76.8874	1,624.51	81.8916	1,624.51	81.1785	1,624.51	80.3284	1,624.51	80.5103	1,624.51	78.1067	1,624.51	78.2907	1,624.51	71.4032	1,624.51	77.0633	1,624.51	69.2147	1,624.51	76.2508	1,624.51	66.9474	1,624.51	75.3749	1,624.51	68.0803	1,624.51	73.5738	1,624.51	66.4304	1,624.51	71.9223	1,624.51	62.6799	1,624.51	70.0541	1,624.51	75.2017	1,624.51	72.6365	1,624.51	71.7357	1,624.51	74.2276	1,624.51	66.8019	1,624.51	69.4955	1,624.51	70.2874	1,624.51	63.2646	1,624.51	66.0485	1,624.51	62.114	1,624.51	68.4038
1,681.64	78.4257	1,681.64	81.664	1,681.64	72.3222	1,681.64	82.313	1,681.64	74.7809	1,681.64	80.8505	1,681.64	81.4463	1,681.64	78.0484	1,681.64	80.4962	1,681.64	80.1169	1,681.64	81.0326	1,681.64	82.7164	1,681.64	80.0363	1,681.64	79.3891	1,681.64	79.2624	1,681.64	76.0617	1,681.64	77.9912	1,681.64	73.5216	1,681.64	75.1811	1,681.64	69.8157	1,681.64	76.3674	1,681.64	72.6827	1,681.64	74.3102	1,681.64	69.5036	1,681.64	74.808	1,681.64	75.1908	1,681.64	73.1396	1,681.64	70.3623	1,681.64	73.9307	1,681.64	64.0199	1,681.64	70.7465	1,681.64	72.0532	1,681.64	61.9495	1,681.64	70.5922	1,681.64	60.5074	1,681.64	63.952
1,741.7	79.0129	1,741.7	81.9482	1,741.7	67.8984	1,741.7	82.9424	1,741.7	73.1061	1,741.7	82.2539	1,741.7	78.9898	1,741.7	80.44	1,741.7	81.2465	1,741.7	80.5563	1,741.7	82.3167	1,741.7	77.1537	1,741.7	79.6912	1,741.7	75.1612	1,741.7	76.4243	1,741.7	76.6758	1,741.7	72.9571	1,741.7	71.0708	1,741.7	73.6715	1,741.7	75.1412	1,741.7	73.2397	1,741.7	71.4945	1,741.7	74.119	1,741.7	67.5035	1,741.7	75.045	1,741.7	65.8111	1,741.7	74.5884	1,741.7	73.3949	1,741.7	73.1466	1,741.7	72.3049	1,741.7	68.9083	1,741.7	69.3666	1,741.7	63.2952	1,741.7	70.9018	1,741.7	44.8644	1,741.7	69.0575
1,803.22	79.123	1,803.22	83.1305	1,803.22	69.5275	1,803.22	83.1425	1,803.22	73.1503	1,803.22	81.6124	1,803.22	79.7891	1,803.22	81.6321	1,803.22	81.7319	1,803.22	80.4038	1,803.22	81.7695	1,803.22	78.9831	1,803.22	79.8027	1,803.22	74.9384	1,803.22	76.5539	1,803.22	68.584	1,803.22	73.6207	1,803.22	71.1986	1,803.22	71.4091	1,803.22	63.4295	1,803.22	70.5455	1,803.22	64.3913	1,803.22	67.932	1,803.22	70.9788	1,803.22	70.3428	1,803.22	62.0471	1,803.22	71.6719	1,803.22	72.0145	1,803.22	71.9231	1,803.22	69.9618	1,803.22	70.8303	1,803.22	71.7015	1,803.22	66.7471	1,803.22	69.2882	1,803.22	64.3584	1,803.22	70.256
1,866.21	79.6816	1,866.21	83.2364	1,866.21	72.8977	1,866.21	83.0925	1,866.21	76.6357	1,866.21	82.8698	1,866.21	81.2444	1,866.21	82.6948	1,866.21	82.8366	1,866.21	80.7943	1,866.21	82.2527	1,866.21	78.6656	1,866.21	80.5818	1,866.21	76.1089	1,866.21	77.2317	1,866.21	73.063	1,866.21	73.6579	1,866.21	72.098	1,866.21	71.1619	1,866.21	73.7562	1,866.21	66.6551	1,866.21	65.3519	1,866.21	68.3135	1,866.21	70.6096	1,866.21	69.5847	1,866.21	68.1523	1,866.21	72.53	1,866.21	69.2156	1,866.21	71.2242	1,866.21	71.2799	1,866.21	70.5424	1,866.21	70.9895	1,866.21	63.1959	1,866.21	69.0336	1,866.21	64.6301	1,866.21	67.4487
1,932.13	79.7412	1,932.13	82.3988	1,932.13	75.2699	1,932.13	82.9879	1,932.13	79.4595	1,932.13	84.7463	1,932.13	83.0515	1,932.13	82.9744	1,932.13	84.6968	1,932.13	80.474	1,932.13	83.7396	1,932.13	79.8595	1,932.13	81.3039	1,932.13	74.7068	1,932.13	78.9545	1,932.13	73.2792	1,932.13	73.8126	1,932.13	69.293	1,932.13	71.3699	1,932.13	58.9036	1,932.13	69.0639	1,932.13	69.2479	1,932.13	67.8725	1,932.13	63.8322	1,932.13	69.2204	1,932.13	70.7208	1,932.13	71.3653	1,932.13	66.2244	1,932.13	69.3291	1,932.13	72.2618	1,932.13	68.2286	1,932.13	70.9319	1,932.13	66.676	1,932.13	70.873	1,932.13	67.0422	1,932.13	69.9125
1,999.51	80.9372	1,999.51	81.66	1,999.51	77.5717	1,999.51	83.8673	1,999.51	81.7037	1,999.51	85.0285	1,999.51	84.9064	1,999.51	83.1771	1,999.51	85.1796	1,999.51	82.0018	1,999.51	83.4957	1,999.51	78.7871	1,999.51	81.3375	1,999.51	77.2652	1,999.51	78.1514	1,999.51	73.9738	1,999.51	76.5864	1,999.51	73.5579	1,999.51	73.3121	1,999.51	73.4381	1,999.51	70.8315	1,999.51	66.2841	1,999.51	67.3802	1,999.51	62.1513	1,999.51	70.0921	1,999.51	70.5388	1,999.51	68.8237	1,999.51	70.0542	1,999.51	68.8023	1,999.51	70.6211	1,999.51	67.6768	1,999.51	71.6991	1,999.51	65.5958	1,999.51	68.5772	1,999.51	67.941	1,999.51	70.4326
2,069.82	81.358	2,069.82	81.8844	2,069.82	78.8917	2,069.82	83.7909	2,069.82	81.281	2,069.82	83.4753	2,069.82	83.8198	2,069.82	83.4323	2,069.82	84.3571	2,069.82	81.4748	2,069.82	83.9775	2,069.82	78.5515	2,069.82	82.1324	2,069.82	76.1939	2,069.82	78.283	2,069.82	71.2931	2,069.82	74.6931	2,069.82	69.3586	2,069.82	71.2463	2,069.82	62.0625	2,069.82	65.261	2,069.82	68.0461	2,069.82	69.6413	2,069.82	68.7057	2,069.82	69.3967	2,069.82	68.4473	2,069.82	70.4003	2,069.82	70.5898	2,069.82	69.477	2,069.82	68.5815	2,069.82	66.9375	2,069.82	71.069	2,069.82	65.7286	2,069.82	68.0089	2,069.82	69.3229	2,069.82	69.2855
2,143.07	81.4612	2,143.07	82.6107	2,143.07	81.2707	2,143.07	82.8118	2,143.07	81.8414	2,143.07	82.3127	2,143.07	84.1181	2,143.07	83.0921	2,143.07	84.0327	2,143.07	81.2681	2,143.07	83.1198	2,143.07	77.9604	2,143.07	81.585	2,143.07	74.6801	2,143.07	78.0837	2,143.07	74.8661	2,143.07	74.7481	2,143.07	69.4059	2,143.07	71.1959	2,143.07	70.2937	2,143.07	67.3133	2,143.07	65.7618	2,143.07	69.0018	2,143.07	67.7823	2,143.07	67.6073	2,143.07	65.2655	2,143.07	69.8016	2,143.07	69.8827	2,143.07	69.4548	2,143.07	66.8404	2,143.07	67.9451	2,143.07	70.2497	2,143.07	67.0994	2,143.07	68.9386	2,143.07	70.7303	2,143.07	69.7243
2,219.24	81.3538	2,219.24	82.0543	2,219.24	82.3151	2,219.24	83.0771	2,219.24	82.3912	2,219.24	83.213	2,219.24	83.8988	2,219.24	81.7483	2,219.24	83.1187	2,219.24	80.3935	2,219.24	82.2587	2,219.24	78.6894	2,219.24	80.8381	2,219.24	75.1793	2,219.24	78.5704	2,219.24	70.8294	2,219.24	72.8669	2,219.24	74.0491	2,219.24	66.3629	2,219.24	71.6071	2,219.24	67.9614	2,219.24	69.492	2,219.24	67.3047	2,219.24	65.849	2,219.24	66.1892	2,219.24	67.589	2,219.24	70.1649	2,219.24	66.9761	2,219.24	71.1719	2,219.24	69.839	2,219.24	67.1158	2,219.24	68.3289	2,219.24	68.261	2,219.24	69.4359	2,219.24	71.2585	2,219.24	70.2965
2,296.88	80.6033	2,296.88	81.3878	2,296.88	81.6468	2,296.88	83.6772	2,296.88	82.6951	2,296.88	83.8815	2,296.88	83.1142	2,296.88	81.1468	2,296.88	82.6514	2,296.88	80.1729	2,296.88	81.2879	2,296.88	78.8214	2,296.88	79.3974	2,296.88	77.6879	2,296.88	76.175	2,296.88	73.3494	2,296.88	72.8423	2,296.88	71.3415	2,296.88	67.7469	2,296.88	69.3602	2,296.88	66.4405	2,296.88	67.4187	2,296.88	68.4948	2,296.88	66.3269	2,296.88	65.0362	2,296.88	68.599	2,296.88	70.7278	2,296.88	68.5475	2,296.88	71.8252	2,296.88	70.9875	2,296.88	68.5951	2,296.88	68.6202	2,296.88	70.1224	2,296.88	70.0244	2,296.88	71.1595	2,296.88	68.1784
2,378.91	80.3647	2,378.91	81.1518	2,378.91	81.4577	2,378.91	83.4619	2,378.91	81.643	2,378.91	83.4302	2,378.91	82.9553	2,378.91	82.9877	2,378.91	83.1299	2,378.91	80.7555	2,378.91	81.6317	2,378.91	78.6551	2,378.91	78.7365	2,378.91	76.0128	2,378.91	77.032	2,378.91	73.0083	2,378.91	75.1044	2,378.91	69.4682	2,378.91	74.0402	2,378.91	67.2805	2,378.91	67.9814	2,378.91	69.5637	2,378.91	67.0735	2,378.91	65.5617	2,378.91	66.76	2,378.91	68.6913	2,378.91	70.7181	2,378.91	68.0487	2,378.91	72.4903	2,378.91	69.2705	2,378.91	69.4484	2,378.91	68.2782	2,378.91	70.0541	2,378.91	71.0125	2,378.91	71.6695	2,378.91	70.9022
2,462.4	81.927	2,462.4	83.005	2,462.4	83.2691	2,462.4	83.1002	2,462.4	82.2376	2,462.4	83.588	2,462.4	81.3319	2,462.4	83.5462	2,462.4	82.9023	2,462.4	80.8349	2,462.4	81.9697	2,462.4	78.7754	2,462.4	79.8527	2,462.4	77.4692	2,462.4	77.7265	2,462.4	76.801	2,462.4	74.16	2,462.4	69.9436	2,462.4	74.0107	2,462.4	71.9936	2,462.4	70.1362	2,462.4	68.6044	2,462.4	69.4771	2,462.4	67.8288	2,462.4	69.1497	2,462.4	66.211	2,462.4	70.845	2,462.4	68.4836	2,462.4	71.2701	2,462.4	67.7265	2,462.4	66.6653	2,462.4	67.8436	2,462.4	68.6819	2,462.4	71.3366	2,462.4	72.0359	2,462.4	71.8094
2,548.83	82.9935	2,548.83	83.9599	2,548.83	84.9025	2,548.83	83.7317	2,548.83	84.1866	2,548.83	84.058	2,548.83	80.664	2,548.83	83.0206	2,548.83	82.0516	2,548.83	82.2449	2,548.83	81.8442	2,548.83	79.4519	2,548.83	79.5881	2,548.83	78.2473	2,548.83	75.3889	2,548.83	75.7353	2,548.83	70.8913	2,548.83	75.7703	2,548.83	73.6627	2,548.83	69.861	2,548.83	72.0871	2,548.83	69.3832	2,548.83	72.5174	2,548.83	68.6084	2,548.83	69.8372	2,548.83	66.9332	2,548.83	71.4131	2,548.83	70.5784	2,548.83	69.2038	2,548.83	67.2303	2,548.83	65.6774	2,548.83	67.395	2,548.83	70.5543	2,548.83	71.2922	2,548.83	74.2815	2,548.83	72.3129
2,639.65	82.9218	2,639.65	83.4302	2,639.65	84.7486	2,639.65	85.0863	2,639.65	85.2568	2,639.65	84.3591	2,639.65	82.1745	2,639.65	83.7856	2,639.65	81.0433	2,639.65	83.2917	2,639.65	82.1232	2,639.65	80.3213	2,639.65	80.2628	2,639.65	77.2489	2,639.65	77.3095	2,639.65	72.3972	2,639.65	74.4432	2,639.65	71.1579	2,639.65	71.2574	2,639.65	66.3309	2,639.65	70.5068	2,639.65	71.403	2,639.65	70.0888	2,639.65	63.7245	2,639.65	70.4869	2,639.65	67.9641	2,639.65	70.0812	2,639.65	69.7461	2,639.65	68.3315	2,639.65	67.8187	2,639.65	57.2472	2,639.65	66.5848	2,639.65	70.5091	2,639.65	70.1619	2,639.65	74.7994	2,639.65	71.9185
2,731.93	82.0852	2,731.93	82.5227	2,731.93	83.4384	2,731.93	84.3075	2,731.93	85.2885	2,731.93	83.9084	2,731.93	83.2176	2,731.93	84.0798	2,731.93	81.3433	2,731.93	82.4499	2,731.93	82.4854	2,731.93	79.6184	2,731.93	81.1792	2,731.93	75.1948	2,731.93	77.1723	2,731.93	75.0317	2,731.93	75.0038	2,731.93	70.3251	2,731.93	67.2454	2,731.93	70.4842	2,731.93	66.0186	2,731.93	67.922	2,731.93	65.7439	2,731.93	67.7214	2,731.93	66.4136	2,731.93	65.0235	2,731.93	67.6691	2,731.93	67.6525	2,731.93	67.9274	2,731.93	67.934	2,731.93	62.5332	2,731.93	67.2759	2,731.93	71.005	2,731.93	67.9608	2,731.93	73.1209	2,731.93	68.4771
2,828.61	80.6694	2,828.61	82.2286	2,828.61	82.6284	2,828.61	82.0424	2,828.61	84.1991	2,828.61	84.3533	2,828.61	82.9815	2,828.61	83.5562	2,828.61	80.5781	2,828.61	81.5067	2,828.61	82.2011	2,828.61	77.666	2,828.61	80.5076	2,828.61	76.2289	2,828.61	78.5469	2,828.61	74.8894	2,828.61	77.5223	2,828.61	72.2118	2,828.61	64.1104	2,828.61	67.8112	2,828.61	52.8834	2,828.61	67.681	2,828.61	62.268	2,828.61	66.8421	2,828.61	71.2356	2,828.61	64.7292	2,828.61	68.6053	2,828.61	65.8399	2,828.61	67.0527	2,828.61	66.6756	2,828.61	62.7105	2,828.61	64.2048	2,828.61	70.4891	2,828.61	67.6658	2,828.61	72.229	2,828.61	71.9502
2,928.22	81.6295	2,928.22	82.844	2,928.22	82.6249	2,928.22	82.9275	2,928.22	83.0776	2,928.22	84.5704	2,928.22	82.2163	2,928.22	83.1364	2,928.22	79.4397	2,928.22	79.6148	2,928.22	81.6659	2,928.22	77.7722	2,928.22	80.9521	2,928.22	76.7944	2,928.22	79.4308	2,928.22	73.3395	2,928.22	76.4662	2,928.22	69.4968	2,928.22	61.833	2,928.22	70.4347	2,928.22	67.5876	2,928.22	69.0187	2,928.22	65.9395	2,928.22	68.6848	2,928.22	71.4203	2,928.22	66.3143	2,928.22	64.8731	2,928.22	67.0157	2,928.22	62.6271	2,928.22	67.7411	2,928.22	55.528	2,928.22	65.0822	2,928.22	69.5788	2,928.22	67.0042	2,928.22	72.1517	2,928.22	70.3068
3,030.76	82.3738	3,030.76	82.4617	3,030.76	82.5062	3,030.76	84.0536	3,030.76	83.3596	3,030.76	84.4427	3,030.76	81.8334	3,030.76	82.8102	3,030.76	80.4428	3,030.76	79.3421	3,030.76	82.0113	3,030.76	78.7798	3,030.76	81.7363	3,030.76	75.8815	3,030.76	80.5496	3,030.76	76.4202	3,030.76	76.0154	3,030.76	74.2192	3,030.76	72.6029	3,030.76	72.0196	3,030.76	72.1925	3,030.76	68.7571	3,030.76	69.8119	3,030.76	68.774	3,030.76	66.449	3,030.76	65.3147	3,030.76	67.874	3,030.76	65.7684	3,030.76	63.8737	3,030.76	67.008	3,030.76	54.4826	3,030.76	65.0869	3,030.76	68.9921	3,030.76	67.1123	3,030.76	72.0077	3,030.76	72.0816
3,137.7	82.3326	3,137.7	81.9183	3,137.7	82.1568	3,137.7	84.448	3,137.7	83.766	3,137.7	84.0628	3,137.7	82.2378	3,137.7	81.8943	3,137.7	79.0725	3,137.7	80.6683	3,137.7	81.602	3,137.7	78.1791	3,137.7	80.3884	3,137.7	76.778	3,137.7	80.1274	3,137.7	76.4903	3,137.7	74.2891	3,137.7	71.3156	3,137.7	75.0016	3,137.7	67.7874	3,137.7	73.3344	3,137.7	66.4756	3,137.7	67.288	3,137.7	68.9714	3,137.7	64.2321	3,137.7	63.7755	3,137.7	67.0225	3,137.7	66.328	3,137.7	61.3111	3,137.7	64.5365	3,137.7	58.5654	3,137.7	64.0943	3,137.7	67.4875	3,137.7	66.0085	3,137.7	70.5382	3,137.7	71.3402
3,249.02	81.4386	3,249.02	79.9486	3,249.02	81.4987	3,249.02	84.1639	3,249.02	82.9577	3,249.02	83.5134	3,249.02	82.4827	3,249.02	81.4682	3,249.02	76.397	3,249.02	80.5655	3,249.02	80.5542	3,249.02	79.4913	3,249.02	80.0711	3,249.02	76.5688	3,249.02	80.6467	3,249.02	71.8367	3,249.02	78.301	3,249.02	70.8957	3,249.02	75.111	3,249.02	68.6013	3,249.02	69.7554	3,249.02	66.2795	3,249.02	70.4307	3,249.02	68.05	3,249.02	65.8812	3,249.02	65.8151	3,249.02	67.7306	3,249.02	65.628	3,249.02	63.0389	3,249.02	68.0622	3,249.02	63.5762	3,249.02	65.5213	3,249.02	67.7619	3,249.02	63.9624	3,249.02	70.2833	3,249.02	67.737
3,363.28	80.9267	3,363.28	80.6511	3,363.28	82.0468	3,363.28	83.1292	3,363.28	81.7494	3,363.28	81.9463	3,363.28	82.625	3,363.28	81.7872	3,363.28	78.3009	3,363.28	80.1374	3,363.28	80.8951	3,363.28	77.8389	3,363.28	82.3945	3,363.28	74.6625	3,363.28	81.6849	3,363.28	75.346	3,363.28	79.2734	3,363.28	73.4776	3,363.28	76.9668	3,363.28	67.6003	3,363.28	67.1273	3,363.28	65.5262	3,363.28	65.2675	3,363.28	66.5135	3,363.28	68.7965	3,363.28	64.6627	3,363.28	68.1109	3,363.28	62.7516	3,363.28	66.5055	3,363.28	64.342	3,363.28	65.7809	3,363.28	60.2296	3,363.28	67.7924	3,363.28	64.361	3,363.28	69.2564	3,363.28	67.3396
3,481.93	81.1195	3,481.93	82.7494	3,481.93	83.7785	3,481.93	83.9884	3,481.93	82.2593	3,481.93	82.3075	3,481.93	82.7041	3,481.93	82.1706	3,481.93	78.7443	3,481.93	80.7627	3,481.93	79.8255	3,481.93	78.1086	3,481.93	83.8453	3,481.93	77.5844	3,481.93	81.7563	3,481.93	74.4301	3,481.93	80.3058	3,481.93	66.3478	3,481.93	74.362	3,481.93	67.5323	3,481.93	64.7712	3,481.93	66.7624	3,481.93	63.6089	3,481.93	67.0833	3,481.93	69.4253	3,481.93	65.9663	3,481.93	63.7706	3,481.93	66.2785	3,481.93	67.9378	3,481.93	62.3014	3,481.93	66.3119	3,481.93	58.3394	3,481.93	66.0135	3,481.93	64.7196	3,481.93	67.7653	3,481.93	69.3674
3,604.98	80.761	3,604.98	83.9305	3,604.98	84.4028	3,604.98	84.479	3,604.98	83.8932	3,604.98	83.7914	3,604.98	83.0671	3,604.98	82.504	3,604.98	80.2291	3,604.98	81.1629	3,604.98	80.5763	3,604.98	78.6307	3,604.98	84.4983	3,604.98	76.8532	3,604.98	81.7438	3,604.98	72.9439	3,604.98	79.4184	3,604.98	72.4071	3,604.98	66.6409	3,604.98	67.4942	3,604.98	62.3153	3,604.98	68.2735	3,604.98	63.9776	3,604.98	63.46	3,604.98	67.6162	3,604.98	67.6836	3,604.98	63.0525	3,604.98	62.6857	3,604.98	65.6387	3,604.98	61.973	3,604.98	67.8828	3,604.98	62.47	3,604.98	64.4124	3,604.98	65.3704	3,604.98	68.134	3,604.98	69.6991
3,732.42	82.207	3,732.42	84.3812	3,732.42	84.3567	3,732.42	83.6327	3,732.42	83.7513	3,732.42	83.8661	3,732.42	82.7983	3,732.42	82.3434	3,732.42	80.5004	3,732.42	80.2843	3,732.42	80.7523	3,732.42	78.3203	3,732.42	84.0513	3,732.42	74.6609	3,732.42	80.5664	3,732.42	74.9488	3,732.42	76.6894	3,732.42	67.9192	3,732.42	62.9237	3,732.42	66.4164	3,732.42	63.2393	3,732.42	64.8824	3,732.42	68.2026	3,732.42	62.212	3,732.42	65.0404	3,732.42	65.062	3,732.42	62.8984	3,732.42	59.7499	3,732.42	64.934	3,732.42	60.8608	3,732.42	66.4812	3,732.42	59.598	3,732.42	61.6573	3,732.42	61.2912	3,732.42	67.5279	3,732.42	68.5279
3,864.26	82.6522	3,864.26	83.9542	3,864.26	85.1115	3,864.26	83.1475	3,864.26	85.0311	3,864.26	82.9746	3,864.26	82.0606	3,864.26	81.8195	3,864.26	80.5015	3,864.26	80.1983	3,864.26	80.4543	3,864.26	77.1367	3,864.26	82.6228	3,864.26	74.5063	3,864.26	79.3551	3,864.26	71.3051	3,864.26	73.8856	3,864.26	67.4159	3,864.26	64.3817	3,864.26	64.832	3,864.26	63.1292	3,864.26	60.4102	3,864.26	61.956	3,864.26	66.0091	3,864.26	64.9363	3,864.26	64.1119	3,864.26	64.8688	3,864.26	62.5152	3,864.26	64.0093	3,864.26	60.9036	3,864.26	65.8587	3,864.26	54.2252	3,864.26	64.8585	3,864.26	61.7836	3,864.26	68.7489	3,864.26	67.4434
4,000.49	82.6572	4,000.49	82.4443	4,000.49	82.9529	4,000.49	84.1985	4,000.49	84.887	4,000.49	83.0259	4,000.49	82.8035	4,000.49	81.9663	4,000.49	80.4909	4,000.49	78.6955	4,000.49	80.4915	4,000.49	77.0116	4,000.49	82.1272	4,000.49	73.3236	4,000.49	78.4377	4,000.49	72.8987	4,000.49	71.5425	4,000.49	71.1098	4,000.49	66.2463	4,000.49	67.6641	4,000.49	53.1104	4,000.49	63.0881	4,000.49	56.5601	4,000.49	63.6482	4,000.49	65.5311	4,000.49	59.4075	4,000.49	65.6897	4,000.49	59.7553	4,000.49	62.5871	4,000.49	60.7992	4,000.49	63.4694	4,000.49	42.1167	4,000.49	62.8677	4,000.49	60.6718	4,000.49	67.2512	4,000.49	68.1663
4,141.11	83.2276	4,141.11	83.7689	4,141.11	83.2452	4,141.11	84.4594	4,141.11	83.6732	4,141.11	83.3437	4,141.11	82.8425	4,141.11	80.7294	4,141.11	79.6995	4,141.11	79.8598	4,141.11	80.2662	4,141.11	75.4653	4,141.11	81.0605	4,141.11	75.4587	4,141.11	73.9115	4,141.11	71.2765	4,141.11	71.3947	4,141.11	65.2964	4,141.11	72.687	4,141.11	66.8691	4,141.11	64.0441	4,141.11	64.2419	4,141.11	62.7472	4,141.11	62.1707	4,141.11	67.1187	4,141.11	62.9489	4,141.11	61.8714	4,141.11	62.3629	4,141.11	62.6008	4,141.11	60.0036	4,141.11	66.6066	4,141.11	48.2362	4,141.11	61.8009	4,141.11	61.4817	4,141.11	66.6121	4,141.11	68.4912
4,287.6	83.4583	4,287.6	84.1254	4,287.6	84.4462	4,287.6	83.9301	4,287.6	84.0288	4,287.6	82.0098	4,287.6	82.7653	4,287.6	81.6335	4,287.6	80.7755	4,287.6	78.2951	4,287.6	79.4532	4,287.6	77.4689	4,287.6	79.1445	4,287.6	73.8259	4,287.6	74.134	4,287.6	72.8372	4,287.6	74.4232	4,287.6	70.0763	4,287.6	73.6193	4,287.6	62.0059	4,287.6	56.8902	4,287.6	63.9136	4,287.6	54.3138	4,287.6	61.3244	4,287.6	66.9249	4,287.6	65.4611	4,287.6	67.2334	4,287.6	59.4418	4,287.6	63.8497	4,287.6	55.0945	4,287.6	66.0209	4,287.6	41.4589	4,287.6	61.9803	4,287.6	62.011	4,287.6	67.9671	4,287.6	68.8621
4,438.48	84.302	4,438.48	83.2987	4,438.48	84.5544	4,438.48	84.4395	4,438.48	84.4754	4,438.48	83.2954	4,438.48	81.6023	4,438.48	80.1685	4,438.48	80.8453	4,438.48	78.7389	4,438.48	76.6951	4,438.48	75.416	4,438.48	74.7166	4,438.48	74.7244	4,438.48	75.9065	4,438.48	71.1392	4,438.48	75.7811	4,438.48	65.384	4,438.48	69.0607	4,438.48	64.4675	4,438.48	54.4086	4,438.48	58.2525	4,438.48	54.6556	4,438.48	64.2883	4,438.48	65.4998	4,438.48	61.0762	4,438.48	69.1847	4,438.48	57.1228	4,438.48	64.0766	4,438.48	58.0886	4,438.48	66.609	4,438.48	45.0073	4,438.48	59.2562	4,438.48	62.062	4,438.48	68.3692	4,438.48	66.1696
4,595.21	84.0049	4,595.21	83.8302	4,595.21	84.0339	4,595.21	83.299	4,595.21	83.8188	4,595.21	80.8645	4,595.21	81.9396	4,595.21	79.0923	4,595.21	80.1215	4,595.21	78.1837	4,595.21	74.9843	4,595.21	74.756	4,595.21	72.8732	4,595.21	72.0604	4,595.21	78.8089	4,595.21	67.3703	4,595.21	76.6064	4,595.21	69.255	4,595.21	69.2995	4,595.21	63.8013	4,595.21	54.7405	4,595.21	61.9588	4,595.21	60.1526	4,595.21	59.6065	4,595.21	58.5422	4,595.21	56.798	4,595.21	66.9538	4,595.21	60.0313	4,595.21	64.2866	4,595.21	54.9831	4,595.21	65.7418	4,595.21	49.8448	4,595.21	58.8952	4,595.21	58.8924	4,595.21	66.7016	4,595.21	66.9089
4,756.35	83.0019	4,756.35	83.2419	4,756.35	83.3898	4,756.35	83.1671	4,756.35	82.2891	4,756.35	80.2545	4,756.35	80.9485	4,756.35	78.7863	4,756.35	78.7257	4,756.35	75.9683	4,756.35	72.3342	4,756.35	72.5669	4,756.35	75.4411	4,756.35	69.9133	4,756.35	78.3354	4,756.35	67.7022	4,756.35	73.3533	4,756.35	56.5251	4,756.35	66.8384	4,756.35	59.8558	4,756.35	62.5545	4,756.35	52.1753	4,756.35	59.1661	4,756.35	57.6204	4,756.35	56.0595	4,756.35	60.1313	4,756.35	64.4412	4,756.35	59.3435	4,756.35	59.7362	4,756.35	46.2663	4,756.35	63.1695	4,756.35	55.4336	4,756.35	59.0142	4,756.35	61.8096	4,756.35	64.9347	4,756.35	66.7151
4,924.8	83.0992	4,924.8	82.5852	4,924.8	83.6282	4,924.8	81.9482	4,924.8	81.0859	4,924.8	79.5887	4,924.8	79.317	4,924.8	77.3057	4,924.8	78.3446	4,924.8	75.9031	4,924.8	70.6317	4,924.8	70.7688	4,924.8	75.7702	4,924.8	67.96	4,924.8	74.5933	4,924.8	64.3688	4,924.8	66.4276	4,924.8	64.3424	4,924.8	64.2979	4,924.8	57.9656	4,924.8	63.6823	4,924.8	57.0884	4,924.8	51.4656	4,924.8	58.5965	4,924.8	55.2737	4,924.8	57.7403	4,924.8	62.1832	4,924.8	57.1576	4,924.8	58.2669	4,924.8	59.0735	4,924.8	62.4256	4,924.8	55.6548	4,924.8	58.358	4,924.8	57.9863	4,924.8	62.3307	4,924.8	62.8075
5,097.66	82.6603	5,097.66	83.3694	5,097.66	83.8588	5,097.66	82.3471	5,097.66	81.771	5,097.66	79.5558	5,097.66	78.6319	5,097.66	78.3561	5,097.66	77.3161	5,097.66	75.4558	5,097.66	70.3109	5,097.66	71.0501	5,097.66	73.9593	5,097.66	69.5806	5,097.66	71.5082	5,097.66	64.9682	5,097.66	64.9987	5,097.66	64.0862	5,097.66	61.9932	5,097.66	59.7706	5,097.66	58.1169	5,097.66	60.3473	5,097.66	44.767	5,097.66	57.1228	5,097.66	42.4928	5,097.66	58.3418	5,097.66	56.8738	5,097.66	58.6346	5,097.66	60.0092	5,097.66	56.0896	5,097.66	59.7121	5,097.66	56.5457	5,097.66	57.0875	5,097.66	57.4763	5,097.66	63.3422	5,097.66	63.7022
5,277.83	82.6042	5,277.83	82.7376	5,277.83	82.9186	5,277.83	81.9387	5,277.83	82.0789	5,277.83	79.6619	5,277.83	80.3271	5,277.83	77.6696	5,277.83	76.8401	5,277.83	74.1717	5,277.83	72.4796	5,277.83	71.5098	5,277.83	72.9934	5,277.83	68.9236	5,277.83	69.1825	5,277.83	65.5147	5,277.83	67.552	5,277.83	57.7412	5,277.83	64.8337	5,277.83	52.8218	5,277.83	59.994	5,277.83	47.4339	5,277.83	53.1166	5,277.83	56.6887	5,277.83	50.505	5,277.83	58.6769	5,277.83	57.44	5,277.83	56.3476	5,277.83	59.4748	5,277.83	55.7789	5,277.83	59.8913	5,277.83	58.3828	5,277.83	58.3587	5,277.83	58.6676	5,277.83	61.5379	5,277.83	60.8697
5,463.87	83.179	5,463.87	83.5367	5,463.87	83.2164	5,463.87	81.9314	5,463.87	81.7736	5,463.87	79.8114	5,463.87	80.552	5,463.87	77.748	5,463.87	77.034	5,463.87	74.2786	5,463.87	74.2479	5,463.87	70.5961	5,463.87	70.4372	5,463.87	67.6223	5,463.87	67.6657	5,463.87	60.1777	5,463.87	64.494	5,463.87	60.491	5,463.87	66.7492	5,463.87	50.9293	5,463.87	61.9451	5,463.87	55.8313	5,463.87	57.9867	5,463.87	54.3552	5,463.87	44.8159	5,463.87	51.8292	5,463.87	49.6461	5,463.87	56.7873	5,463.87	57.9392	5,463.87	56.8606	5,463.87	60.2943	5,463.87	56.4311	5,463.87	57.455	5,463.87	60.8412	5,463.87	61.0971	5,463.87	61.8798
5,657.23	83.0562	5,657.23	83.1591	5,657.23	83.6464	5,657.23	82.0186	5,657.23	80.8519	5,657.23	79.7173	5,657.23	79.1262	5,657.23	76.6414	5,657.23	77.8207	5,657.23	73.8992	5,657.23	73.7007	5,657.23	69.8838	5,657.23	68.4879	5,657.23	64.9105	5,657.23	69.069	5,657.23	61.1506	5,657.23	65.494	5,657.23	54.7673	5,657.23	64.7408	5,657.23	51.3569	5,657.23	63.3284	5,657.23	50.8482	5,657.23	57.7221	5,657.23	48.9803	5,657.23	51.5465	5,657.23	53.288	5,657.23	54.3226	5,657.23	58.0079	5,657.23	56.8525	5,657.23	57.1411	5,657.23	60.6567	5,657.23	59.3949	5,657.23	55.9799	5,657.23	59.4516	5,657.23	61.2363	5,657.23	59.9174
5,856.45	82.6367	5,856.45	83.3726	5,856.45	83.5096	5,856.45	81.4857	5,856.45	81.2795	5,856.45	79.5462	5,856.45	79.2485	5,856.45	76.7333	5,856.45	78.3126	5,856.45	73.8045	5,856.45	72.9087	5,856.45	67.8177	5,856.45	67.7371	5,856.45	65.0577	5,856.45	68.8344	5,856.45	57.9568	5,856.45	63.927	5,856.45	58.5519	5,856.45	59.7621	5,856.45	50.4497	5,856.45	51.8678	5,856.45	49.9824	5,856.45	51.6176	5,856.45	52.5396	5,856.45	47.7434	5,856.45	49.63	5,856.45	55.1709	5,856.45	55.0052	5,856.45	51.2019	5,856.45	56.485	5,856.45	60.4862	5,856.45	60.9143	5,856.45	55.4323	5,856.45	59.3008	5,856.45	57.8987	5,856.45	58.3037
6,062.99	83.3908	6,062.99	83.6421	6,062.99	83.6676	6,062.99	82.7206	6,062.99	82.46	6,062.99	79.4657	6,062.99	79.3705	6,062.99	76.9314	6,062.99	77.9473	6,062.99	73.221	6,062.99	72.1365	6,062.99	69.1694	6,062.99	66.9166	6,062.99	63.1587	6,062.99	68.6921	6,062.99	57.6146	6,062.99	66.089	6,062.99	44.5055	6,062.99	63.4435	6,062.99	45.699	6,062.99	57.9602	6,062.99	47.8821	6,062.99	50.7034	6,062.99	49.7045	6,062.99	51.7742	6,062.99	51.6888	6,062.99	56.1114	6,062.99	56.1555	6,062.99	51.2883	6,062.99	58.0044	6,062.99	60.137	6,062.99	60.1846	6,062.99	58.0128	6,062.99	61.4127	6,062.99	59.2786	6,062.99	59.3445
6,276.86	82.9143	6,276.86	83.7866	6,276.86	84.0762	6,276.86	81.8765	6,276.86	82.2727	6,276.86	79.6176	6,276.86	79.7451	6,276.86	77.3231	6,276.86	78.2217	6,276.86	72.1608	6,276.86	69.8837	6,276.86	67.4765	6,276.86	66.611	6,276.86	59.2102	6,276.86	66.7346	6,276.86	53.7726	6,276.86	65.5946	6,276.86	55.9565	6,276.86	60.2494	6,276.86	44.6092	6,276.86	47.3304	6,276.86	48.7299	6,276.86	48.2006	6,276.86	45.9686	6,276.86	49.4983	6,276.86	55.3437	6,276.86	52.5248	6,276.86	54.9445	6,276.86	53.4397	6,276.86	58.1984	6,276.86	59.3899	6,276.86	60.3729	6,276.86	58.1726	6,276.86	59.8219	6,276.86	58.4392	6,276.86	58.7698
6,498.05	82.8926	6,498.05	83.0511	6,498.05	82.6786	6,498.05	81.6832	6,498.05	81.7151	6,498.05	79.3217	6,498.05	79.5167	6,498.05	76.7491	6,498.05	76.5085	6,498.05	72.3223	6,498.05	69.8327	6,498.05	64.0982	6,498.05	63.239	6,498.05	58.9115	6,498.05	67.2574	6,498.05	52.7449	6,498.05	63.4077	6,498.05	47.1236	6,498.05	57.5211	6,498.05	51.6902	6,498.05	56.8733	6,498.05	50.1719	6,498.05	50.1882	6,498.05	50.027	6,498.05	48.1573	6,498.05	52.6899	6,498.05	51.5306	6,498.05	54.4287	6,498.05	54.1872	6,498.05	59.4386	6,498.05	55.8235	6,498.05	60.2471	6,498.05	55.8196	6,498.05	60.5715	6,498.05	57.9594	6,498.05	57.6393
6,726.56	83.1351	6,726.56	83.2521	6,726.56	83.0334	6,726.56	81.3482	6,726.56	81.3954	6,726.56	79.1775	6,726.56	79.1673	6,726.56	76.2876	6,726.56	75.5504	6,726.56	71.43	6,726.56	68.8875	6,726.56	62.8099	6,726.56	65.2773	6,726.56	56.9752	6,726.56	62.7752	6,726.56	56.7065	6,726.56	56.9525	6,726.56	56.8924	6,726.56	57.4265	6,726.56	50.0127	6,726.56	58.8574	6,726.56	44.9716	6,726.56	55.0482	6,726.56	47.7064	6,726.56	49.1794	6,726.56	51.4561	6,726.56	53.0074	6,726.56	56.4219	6,726.56	53.4623	6,726.56	58.7522	6,726.56	55.778	6,726.56	61.2992	6,726.56	54.1593	6,726.56	61.136	6,726.56	56.1982	6,726.56	57.2388
6,963.87	82.5275	6,963.87	82.6668	6,963.87	83.3618	6,963.87	80.7762	6,963.87	81.8977	6,963.87	79.0758	6,963.87	77.6447	6,963.87	76.3314	6,963.87	75.3469	6,963.87	70.4891	6,963.87	69.6347	6,963.87	62.7652	6,963.87	66.0107	6,963.87	57.2458	6,963.87	59.6464	6,963.87	58.5308	6,963.87	56.0297	6,963.87	53.8765	6,963.87	54.2405	6,963.87	54.3793	6,963.87	50.5026	6,963.87	48.3848	6,963.87	48.8801	6,963.87	48.1897	6,963.87	45.9328	6,963.87	50.7492	6,963.87	51.0376	6,963.87	55.8417	6,963.87	47.1856	6,963.87	58.7447	6,963.87	55.5564	6,963.87	61.5049	6,963.87	56.069	6,963.87	60.5768	6,963.87	55.8866	6,963.87	57.4826
7,209.96	83.6718	7,209.96	82.9652	7,209.96	82.9258	7,209.96	80.5318	7,209.96	81.3443	7,209.96	78.543	7,209.96	77.4149	7,209.96	75.5417	7,209.96	75.2024	7,209.96	69.171	7,209.96	69.9403	7,209.96	60.7407	7,209.96	64.9941	7,209.96	59.9034	7,209.96	60.9577	7,209.96	56.4658	7,209.96	59.6644	7,209.96	56.8306	7,209.96	52.5747	7,209.96	49.3621	7,209.96	53.6806	7,209.96	44.0615	7,209.96	51.1836	7,209.96	51.2393	7,209.96	49.2205	7,209.96	51.4141	7,209.96	50.8169	7,209.96	55.7779	7,209.96	51.4115	7,209.96	57.5721	7,209.96	55.0093	7,209.96	60.6709	7,209.96	53.8363	7,209.96	61.7841	7,209.96	57.6695	7,209.96	57.0313
7,464.84	84.0425	7,464.84	82.7979	7,464.84	83.461	7,464.84	80.2365	7,464.84	80.6474	7,464.84	78.2155	7,464.84	77.3284	7,464.84	74.3808	7,464.84	74.7486	7,464.84	67.3391	7,464.84	69.5972	7,464.84	62.0966	7,464.84	62.4241	7,464.84	57.4075	7,464.84	57.7365	7,464.84	58.852	7,464.84	60.8488	7,464.84	58.2602	7,464.84	42.9416	7,464.84	56.1049	7,464.84	38.7478	7,464.84	51.5488	7,464.84	48.2414	7,464.84	50.5008	7,464.84	47.171	7,464.84	48.9996	7,464.84	39.2867	7,464.84	54.2224	7,464.84	52.2272	7,464.84	58.4453	7,464.84	54.1205	7,464.84	60.4831	7,464.84	54.3935	7,464.84	60.5544	7,464.84	57.7987	7,464.84	56.3752
7,727.05	83.8456	7,727.05	82.8817	7,727.05	82.6385	7,727.05	80.4486	7,727.05	80.616	7,727.05	77.121	7,727.05	77.3418	7,727.05	73.1307	7,727.05	74.6423	7,727.05	64.5041	7,727.05	68.4862	7,727.05	57.6977	7,727.05	46.6702	7,727.05	59.5825	7,727.05	62.8163	7,727.05	59.3816	7,727.05	59.0718	7,727.05	57.6398	7,727.05	57.3874	7,727.05	48.2341	7,727.05	49.8887	7,727.05	49.0841	7,727.05	45.0354	7,727.05	49.3477	7,727.05	43.9641	7,727.05	53.2345	7,727.05	41.9675	7,727.05	52.6538	7,727.05	52.1791	7,727.05	56.3397	7,727.05	54.5023	7,727.05	59.4167	7,727.05	53.8267	7,727.05	60.7598	7,727.05	56.9807	7,727.05	56.712
7,999.51	84.4269	7,999.51	83.3749	7,999.51	82.9269	7,999.51	80.2039	7,999.51	79.8905	7,999.51	76.8385	7,999.51	77.3649	7,999.51	71.2074	7,999.51	72.3517	7,999.51	57.8856	7,999.51	66.5897	7,999.51	59.9616	7,999.51	53.0067	7,999.51	61.3608	7,999.51	59.4094	7,999.51	58.1607	7,999.51	61.8433	7,999.51	55.1684	7,999.51	45.575	7,999.51	53.7767	7,999.51	48.63	7,999.51	48.7828	7,999.51	49.4594	7,999.51	44.2739	7,999.51	40.9776	7,999.51	51.5344	7,999.51	37.5793	7,999.51	46.5568	7,999.51	53.9624	7,999.51	53.7878	7,999.51	54.3285	7,999.51	57.4487	7,999.51	51.0805	7,999.51	59.9277	7,999.51	58.2493	7,999.51	56.2605
8,282.23	84.3196	8,282.23	82.947	8,282.23	82.7193	8,282.23	80.5896	8,282.23	79.8865	8,282.23	75.8478	8,282.23	75.7271	8,282.23	69.1908	8,282.23	70.9765	8,282.23	60.7375	8,282.23	63.8935	8,282.23	61.9185	8,282.23	61.3561	8,282.23	59.5997	8,282.23	55.2672	8,282.23	60.349	8,282.23	65.1141	8,282.23	57.2548	8,282.23	58.9786	8,282.23	53.5368	8,282.23	42.75	8,282.23	37.1613	8,282.23	46.7458	8,282.23	51.7968	8,282.23	45.1694	8,282.23	57.5378	8,282.23	36.4489	8,282.23	48.6774	8,282.23	55.0746	8,282.23	51.5044	8,282.23	52.8985	8,282.23	56.5115	8,282.23	51.0075	8,282.23	58.7964	8,282.23	56.3678	8,282.23	56.9917
8,573.73	84.6993	8,573.73	83.2888	8,573.73	82.8971	8,573.73	80.592	8,573.73	79.957	8,573.73	75.5309	8,573.73	74.9893	8,573.73	67.6736	8,573.73	71.2238	8,573.73	62.1667	8,573.73	65.2458	8,573.73	64.1697	8,573.73	63.5241	8,573.73	62.6418	8,573.73	65.2469	8,573.73	60.4469	8,573.73	67.8215	8,573.73	58.0567	8,573.73	61.7241	8,573.73	52.9455	8,573.73	43.819	8,573.73	43.9071	8,573.73	43.7859	8,573.73	48.4362	8,573.73	45.1447	8,573.73	54.7307	8,573.73	50.9196	8,573.73	49.7328	8,573.73	53.5671	8,573.73	43.7348	8,573.73	50.2021	8,573.73	56.7498	8,573.73	48.8399	8,573.73	58.725	8,573.73	56.9128	8,573.73	57.077
8,876.95	84.5294	8,876.95	83.4867	8,876.95	83.2952	8,876.95	80.612	8,876.95	80.829	8,876.95	74.8745	8,876.95	76.1288	8,876.95	68.4692	8,876.95	68.8122	8,876.95	63.5497	8,876.95	68.8472	8,876.95	65.5576	8,876.95	64.6774	8,876.95	64.2035	8,876.95	67.9072	8,876.95	62.2554	8,876.95	65.6237	8,876.95	59.7906	8,876.95	61.7259	8,876.95	53.0858	8,876.95	46.5883	8,876.95	46.5387	8,876.95	45.2606	8,876.95	51.6659	8,876.95	50.4196	8,876.95	55.3758	8,876.95	47.6158	8,876.95	53.9486	8,876.95	55.2247	8,876.95	40.0608	8,876.95	50.8139	8,876.95	55.1277	8,876.95	50.1009	8,876.95	57.0545	8,876.95	55.5163	8,876.95	55.1572
9,188.96	84.6453	9,188.96	83.5941	9,188.96	83.6253	9,188.96	80.1633	9,188.96	80.4201	9,188.96	75.0787	9,188.96	75.9073	9,188.96	68.9506	9,188.96	68.0615	9,188.96	64.6579	9,188.96	70.6888	9,188.96	65.9603	9,188.96	65.3364	9,188.96	65.4241	9,188.96	67.2985	9,188.96	61.655	9,188.96	63.3077	9,188.96	60.035	9,188.96	56.5212	9,188.96	55.5809	9,188.96	52.2005	9,188.96	47.7034	9,188.96	51.0524	9,188.96	51.014	9,188.96	49.9787	9,188.96	55.4096	9,188.96	31.9239	9,188.96	54.8727	9,188.96	52.3109	9,188.96	41.0322	9,188.96	44.0658	9,188.96	53.6576	9,188.96	47.4457	9,188.96	57.0227	9,188.96	55.5871	9,188.96	54.6596
9,514.16	84.4413	9,514.16	83.6175	9,514.16	83.7105	9,514.16	80.4225	9,514.16	81.1421	9,514.16	75.0764	9,514.16	74.0932	9,514.16	69.6233	9,514.16	70.4789	9,514.16	64.5554	9,514.16	71.0255	9,514.16	66.9892	9,514.16	65.5619	9,514.16	64.8681	9,514.16	63.2751	9,514.16	62.844	9,514.16	65.1497	9,514.16	59.1848	9,514.16	53.5438	9,514.16	55.6527	9,514.16	53.1701	9,514.16	37.941	9,514.16	51.0314	9,514.16	48.493	9,514.16	39.9163	9,514.16	54.0665	9,514.16	48.4749	9,514.16	55.3005	9,514.16	40.161	9,514.16	48.0872	9,514.16	43.0564	9,514.16	50.1644	9,514.16	45.4419	9,514.16	55.8528	9,514.16	52.4616	9,514.16	53.9789
9,849.61	84.5881	9,849.61	83.7064	9,849.61	83.5218	9,849.61	80.4419	9,849.61	81.0552	9,849.61	74.4182	9,849.61	75.6928	9,849.61	69.5585	9,849.61	70.8275	9,849.61	63.3696	9,849.61	67.9522	9,849.61	66.4871	9,849.61	64.0112	9,849.61	65.2173	9,849.61	54.2745	9,849.61	60.9749	9,849.61	63.4632	9,849.61	57.7318	9,849.61	55.1949	9,849.61	52.8866	9,849.61	52.0777	9,849.61	47.6486	9,849.61	49.35	9,849.61	52.0347	9,849.61	40.5615	9,849.61	53.8308	9,849.61	45.6102	9,849.61	53.6697	9,849.61	39.4359	9,849.61	48.6444	9,849.61	45.0681	9,849.61	49.2788	9,849.61	43.6686	9,849.61	53.2542	9,849.61	50.956	9,849.61	54.6308
10,196.8	84.6691	10,196.8	83.8163	10,196.8	83.5245	10,196.8	80.198	10,196.8	80.9158	10,196.8	74.1675	10,196.8	76.238	10,196.8	67.4515	10,196.8	71.4628	10,196.8	63.9911	10,196.8	64.093	10,196.8	66.7273	10,196.8	64.5413	10,196.8	64.1442	10,196.8	55.7301	10,196.8	60.931	10,196.8	58.5868	10,196.8	57.0175	10,196.8	49.1116	10,196.8	50.9463	10,196.8	51.1226	10,196.8	47.4665	10,196.8	50.0698	10,196.8	49.0591	10,196.8	41.5772	10,196.8	54.9259	10,196.8	36.9399	10,196.8	54.1412	10,196.8	42.6697	10,196.8	50.4478	10,196.8	41.4025	10,196.8	38.816	10,196.8	47.5276	10,196.8	50.8389	10,196.8	47.3131	10,196.8	52.7184
10,555.7	84.653	10,555.7	83.8413	10,555.7	83.4878	10,555.7	79.9389	10,555.7	80.4604	10,555.7	72.9095	10,555.7	74.9699	10,555.7	63.817	10,555.7	67.936	10,555.7	65.8092	10,555.7	61.1058	10,555.7	67.9677	10,555.7	55.5706	10,555.7	65.0733	10,555.7	47.9326	10,555.7	61.7138	10,555.7	57.6235	10,555.7	56.5726	10,555.7	47.9716	10,555.7	54.4963	10,555.7	39.2231	10,555.7	40.1214	10,555.7	41.1624	10,555.7	47.0647	10,555.7	40.8571	10,555.7	52.4899	10,555.7	19.5703	10,555.7	53.2799	10,555.7	38.0986	10,555.7	53.1605	10,555.7	35.881	10,555.7	43.1925	10,555.7	47.7868	10,555.7	48.7347	10,555.7	48.1464	10,555.7	52.8403
10,927.7	84.5698	10,927.7	83.6925	10,927.7	83.1148	10,927.7	79.3031	10,927.7	79.6369	10,927.7	70.6475	10,927.7	72.9713	10,927.7	58.8462	10,927.7	65.5664	10,927.7	67.3452	10,927.7	54.9488	10,927.7	68.461	10,927.7	54.4278	10,927.7	64.5836	10,927.7	52.8145	10,927.7	59.9306	10,927.7	53.2087	10,927.7	58.136	10,927.7	45.3782	10,927.7	51.4792	10,927.7	44.2021	10,927.7	45.9089	10,927.7	35.0487	10,927.7	50.8906	10,927.7	34.4191	10,927.7	53.2734	10,927.7	32.7195	10,927.7	53.0951	10,927.7	35.8465	10,927.7	53.3316	10,927.7	38.4781	10,927.7	47.5581	10,927.7	39.6429	10,927.7	45.6796	10,927.7	47.6103	10,927.7	50.7956
11,313	83.6821	11,313	82.7174	11,313	82.2236	11,313	77.6078	11,313	77.9487	11,313	66.9281	11,313	69.4052	11,313	62.6003	11,313	57.7914	11,313	69.1182	11,313	59.6306	11,313	68.108	11,313	62.6925	11,313	63.374	11,313	53.4193	11,313	59.6752	11,313	54.4344	11,313	55.1386	11,313	52.3681	11,313	49.2901	11,313	49.2152	11,313	41.8931	11,313	36.3789	11,313	43.2239	11,313	33.8173	11,313	46.9056	11,313	28.4066	11,313	49.6105	11,313	37.3674	11,313	51.4775	11,313	39.8169	11,313	48.4494	11,313	41.3754	11,313	43.1627	11,313	48.0647	11,313	51.0638
11,712.9	83.4028	11,712.9	82.4125	11,712.9	82.05	11,712.9	77.0616	11,712.9	77.2836	11,712.9	68.3937	11,712.9	68.5542	11,712.9	66.9106	11,712.9	51.4149	11,712.9	68.6153	11,712.9	66.0293	11,712.9	66.7865	11,712.9	65.5077	11,712.9	61.4666	11,712.9	58.1241	11,712.9	57.3987	11,712.9	59.531	11,712.9	53.5121	11,712.9	50.5339	11,712.9	49.2691	11,712.9	52.4331	11,712.9	38.144	11,712.9	44.2622	11,712.9	47.6113	11,712.9	37.4169	11,712.9	47.3156	11,712.9	32.2946	11,712.9	48.2022	11,712.9	46.253	11,712.9	51.7113	11,712.9	22.6971	11,712.9	49.2533	11,712.9	34.2024	11,712.9	38.0694	11,712.9	40.7502	11,712.9	49.253
12,126	83.7794	12,126	82.4427	12,126	82.4293	12,126	77.6662	12,126	77.5962	12,126	68.1864	12,126	66.7887	12,126	67.959	12,126	62.8514	12,126	68.0863	12,126	66.4974	12,126	64.8313	12,126	65.5024	12,126	59.4798	12,126	62.0251	12,126	55.9828	12,126	60.1368	12,126	51.7364	12,126	50.6125	12,126	48.3512	12,126	55.0528	12,126	45.3187	12,126	44.9944	12,126	38.4171	12,126	38.2748	12,126	46.1812	12,126	38.1059	12,126	46.8761	12,126	35.599	12,126	48.1518	12,126	34.4149	12,126	48.1636	12,126	30.1956	12,126	39.1881	12,126	21.5613	12,126	42.3476
12,553.7	84.0206	12,553.7	82.2912	12,553.7	82.6978	12,553.7	77.3678	12,553.7	78.4174	12,553.7	67.429	12,553.7	70.3329	12,553.7	67.8722	12,553.7	65.9002	12,553.7	66.3631	12,553.7	65.8886	12,553.7	62.5869	12,553.7	63.5939	12,553.7	56.2939	12,553.7	59.4555	12,553.7	54.2911	12,553.7	54.4482	12,553.7	47.9146	12,553.7	54.648	12,553.7	34.8546	12,553.7	56.4791	12,553.7	39.2399	12,553.7	48.5742	12,553.7	26.6992	12,553.7	31.86	12,553.7	41.9947	12,553.7	35.5519	12,553.7	38.4474	12,553.7	43.3605	12,553.7	39.573	12,553.7	30.5428	12,553.7	45.9825	12,553.7	38.0553	12,553.7	37.2984	12,553.7	17.1221	12,553.7	37.2833
12,996.1	84.1883	12,996.1	82.0789	12,996.1	82.8516	12,996.1	76.3779	12,996.1	78.9791	12,996.1	65.9834	12,996.1	70.7662	12,996.1	66.5312	12,996.1	63.8731	12,996.1	62.1566	12,996.1	66.3841	12,996.1	56.7066	12,996.1	60.8056	12,996.1	48.2819	12,996.1	59.5811	12,996.1	36.9965	12,996.1	56.098	12,996.1	25.0897	12,996.1	52.8867	12,996.1	39.2595	12,996.1	57.6546	12,996.1	36.5506	12,996.1	46.6193	12,996.1	32.9445	12,996.1	36.2666	12,996.1	40.431	12,996.1	37.4439	12,996.1	30.0489	12,996.1	41.2365	12,996.1	33.2058	12,996.1	21.5458	12,996.1	39.9686	12,996.1	36.1043	12,996.1	32.9453	12,996.1	19.6091	12,996.1	39.8553
13,454.6	84.4739	13,454.6	81.986	13,454.6	83.071	13,454.6	75.6033	13,454.6	78.7806	13,454.6	66.3758	13,454.6	68.4655	13,454.6	64.8967	13,454.6	63.8228	13,454.6	56.0737	13,454.6	62.2646	13,454.6	51.9557	13,454.6	64.1881	13,454.6	48.4188	13,454.6	59.8526	13,454.6	45.9538	13,454.6	58.067	13,454.6	45.9894	13,454.6	53.991	13,454.6	42.4977	13,454.6	58.5873	13,454.6	30.5189	13,454.6	43.461	13,454.6	40.8138	13,454.6	31.2648	13,454.6	32.3903	13,454.6	38.0652	13,454.6	42.4845	13,454.6	38.6725	13,454.6	39.7735	13,454.6	28.2958	13,454.6	41.2573	13,454.6	38.5475	13,454.6	39.0258	13,454.6	33.9463	13,454.6	44.2091
13,929.2	84.6259	13,929.2	82.2531	13,929.2	83.5424	13,929.2	75.7638	13,929.2	79.2223	13,929.2	66.1244	13,929.2	68.7177	13,929.2	60.3397	13,929.2	61.5504	13,929.2	54.1982	13,929.2	65.2253	13,929.2	52.5233	13,929.2	65.8219	13,929.2	56.6293	13,929.2	62.9757	13,929.2	53.7472	13,929.2	55.6879	13,929.2	49.8577	13,929.2	54.3892	13,929.2	47.0899	13,929.2	58.7276	13,929.2	37.5205	13,929.2	46.8778	13,929.2	40.2546	13,929.2	34.1838	13,929.2	39.1313	13,929.2	37.8507	13,929.2	45.6196	13,929.2	40.8211	13,929.2	44.1219	13,929.2	32.3241	13,929.2	45.6001	13,929.2	39.4432	13,929.2	41.9247	13,929.2	35.9201	13,929.2	41.4464
14,419.9	84.8946	14,419.9	82.3548	14,419.9	83.764	14,419.9	75.6123	14,419.9	78.6933	14,419.9	66.5619	14,419.9	67.959	14,419.9	52.3685	14,419.9	60.9565	14,419.9	57.4144	14,419.9	65.6422	14,419.9	59.07	14,419.9	66.2924	14,419.9	59.2819	14,419.9	63.9324	14,419.9	55.2658	14,419.9	55.1975	14,419.9	49.9876	14,419.9	54.0043	14,419.9	48.9286	14,419.9	61.212	14,419.9	34.0743	14,419.9	50.9659	14,419.9	43.3227	14,419.9	41.1728	14,419.9	42.5913	14,419.9	35.6784	14,419.9	43.5602	14,419.9	37.1148	14,419.9	44.2591	14,419.9	34.0072	14,419.9	44.942	14,419.9	37.0439	14,419.9	39.1516	14,419.9	35.5913	14,419.9	32.7981
14,928.2	85.0408	14,928.2	82.3265	14,928.2	83.5805	14,928.2	75.5744	14,928.2	78.3242	14,928.2	65.9894	14,928.2	65.3768	14,928.2	58.3502	14,928.2	63.4053	14,928.2	57.6382	14,928.2	67.8724	14,928.2	61.4013	14,928.2	68.2296	14,928.2	59.6226	14,928.2	61.9422	14,928.2	54.8735	14,928.2	56.9987	14,928.2	47.7266	14,928.2	53.8749	14,928.2	47.8307	14,928.2	61.1523	14,928.2	36.1888	14,928.2	51.503	14,928.2	43.5698	14,928.2	45.598	14,928.2	42.5819	14,928.2	36.4335	14,928.2	41.3938	14,928.2	36.4057	14,928.2	44.3152	14,928.2	33.6629	14,928.2	44.9555	14,928.2	25.906	14,928.2	31.5566	14,928.2	32.8348	14,928.2	31.5182
15,455.6	85.007	15,455.6	82.4048	15,455.6	83.3785	15,455.6	75.262	15,455.6	77.5434	15,455.6	60.5108	15,455.6	64.251	15,455.6	62.5865	15,455.6	66.0234	15,455.6	60.6415	15,455.6	68.0746	15,455.6	61.9719	15,455.6	65.3947	15,455.6	57.8345	15,455.6	61.3439	15,455.6	54.3074	15,455.6	51.9149	15,455.6	45.4673	15,455.6	54.6963	15,455.6	44.9956	15,455.6	62.1294	15,455.6	34.0185	15,455.6	48.7121	15,455.6	39.049	15,455.6	43.7599	15,455.6	38.8096	15,455.6	38.3574	15,455.6	39.5206	15,455.6	40.8723	15,455.6	44.1626	15,455.6	36.5738	15,455.6	40.917	15,455.6	37.9514	15,455.6	17.7854	15,455.6	32.098	15,455.6	21.1514
16,000.5	84.8889	16,000.5	82.278	16,000.5	83.1939	16,000.5	74.3986	16,000.5	76.1265	16,000.5	57.8406	16,000.5	44.2506	16,000.5	63.3249	16,000.5	66.3855	16,000.5	62.3581	16,000.5	67.136	16,000.5	62.0247	16,000.5	64.8357	16,000.5	58.095	16,000.5	58.068	16,000.5	54.4575	16,000.5	52.0696	16,000.5	47.2738	16,000.5	53.9913	16,000.5	45.0189	16,000.5	61.8309	16,000.5	40.6154	16,000.5	44.4136	16,000.5	39.2957	16,000.5	46.7947	16,000.5	40.2541	16,000.5	41.8471	16,000.5	38.7352	16,000.5	41.457	16,000.5	40.8118	16,000.5	37.1081	16,000.5	41.2789	16,000.5	41.1645	16,000.5	31.6843	16,000.5	39.4901	16,000.5	32.9814
16,564.5	84.5245	16,564.5	81.6702	16,564.5	82.6332	16,564.5	73.1925	16,564.5	75.0367	16,564.5	57.6561	16,564.5	53.9169	16,564.5	63.1683	16,564.5	69.1281	16,564.5	62.8385	16,564.5	66.6636	16,564.5	62.2366	16,564.5	63.0334	16,564.5	59.2983	16,564.5	55.6536	16,564.5	54.4584	16,564.5	47.2596	16,564.5	47.0441	16,564.5	53.3169	16,564.5	45.5759	16,564.5	61.3554	16,564.5	41.3719	16,564.5	48.3366	16,564.5	39.053	16,564.5	45.3911	16,564.5	37.595	16,564.5	38.2609	16,564.5	37.2811	16,564.5	39.0721	16,564.5	38.1897	16,564.5	34.99	16,564.5	31.7667	16,564.5	40.9768	16,564.5	25.3728	16,564.5	40.3272	16,564.5	33.1188
17,148.9	84.2001	17,148.9	81.1127	17,148.9	81.947	17,148.9	72.0007	17,148.9	73.4688	17,148.9	58.1347	17,148.9	61.422	17,148.9	64.1402	17,148.9	67.8148	17,148.9	63.0686	17,148.9	64.9696	17,148.9	61.866	17,148.9	58.919	17,148.9	58.3741	17,148.9	48.0722	17,148.9	52.5424	17,148.9	38.6129	17,148.9	45.7615	17,148.9	52.8581	17,148.9	43.0488	17,148.9	60.6964	17,148.9	43.154	17,148.9	47.9193	17,148.9	37.7059	17,148.9	42.6779	17,148.9	33.3996	17,148.9	36.8936	17,148.9	38.1281	17,148.9	36.8612	17,148.9	35.4724	17,148.9	37.3329	17,148.9	33.7479	17,148.9	39.2169	17,148.9	35.9885	17,148.9	35.704	17,148.9	33.93
17,752.4	83.6675	17,752.4	80.4012	17,752.4	81.2378	17,752.4	69.8696	17,752.4	71.0955	17,752.4	60.9492	17,752.4	63.6118	17,752.4	65.3879	17,752.4	67.4559	17,752.4	62.6588	17,752.4	62.8058	17,752.4	60.6024	17,752.4	52.5032	17,752.4	55.7447	17,752.4	32.8068	17,752.4	48.0826	17,752.4	30.4182	17,752.4	41.3116	17,752.4	52.5616	17,752.4	38.5484	17,752.4	59.9751	17,752.4	38.2114	17,752.4	49.21	17,752.4	35.0399	17,752.4	43.5214	17,752.4	34.9195	17,752.4	34.2226	17,752.4	36.4635	17,752.4	31.4001	17,752.4	33.4006	17,752.4	37.4702	17,752.4	24.1871	17,752.4	36.2587	17,752.4	37.6738	17,752.4	20.7932	17,752.4	33.0839
18,379.4	83.1437	18,379.4	79.451	18,379.4	80.4195	18,379.4	67.1721	18,379.4	68.5661	18,379.4	63.5505	18,379.4	65.5026	18,379.4	65.7848	18,379.4	66.0694	18,379.4	61.3238	18,379.4	60.1572	18,379.4	58.458	18,379.4	50.0855	18,379.4	50.8064	18,379.4	44.494	18,379.4	39.3856	18,379.4	23.6063	18,379.4	32.8517	18,379.4	51.1113	18,379.4	34.4983	18,379.4	59.0897	18,379.4	33.3889	18,379.4	49.2877	18,379.4	31.9763	18,379.4	41.1033	18,379.4	33.3964	18,379.4	29.8898	18,379.4	32.8354	18,379.4	27.4534	18,379.4	31.2018	18,379.4	32.6104	18,379.4	27.0889	18,379.4	35.6453	18,379.4	37.8413	18,379.4	27.4875	18,379.4	34.503
19,026.9	82.393	19,026.9	78.566	19,026.9	79.377	19,026.9	64.2519	19,026.9	65.0476	19,026.9	64.4431	19,026.9	65.4204	19,026.9	65.2666	19,026.9	65.1708	19,026.9	58.9609	19,026.9	55.5712	19,026.9	53.9431	19,026.9	46.975	19,026.9	40.51	19,026.9	45.7101	19,026.9	26.3825	19,026.9	33.5262	19,026.9	17.0361	19,026.9	49.6422	19,026.9	27.2087	19,026.9	57.697	19,026.9	28.9373	19,026.9	48.3079	19,026.9	28.2145	19,026.9	40.6007	19,026.9	28.1601	19,026.9	24.9537	19,026.9	30.4189	19,026.9	14.3458	19,026.9	32.1493	19,026.9	27.8907	19,026.9	25.8168	19,026.9	28.3939	19,026.9	34.81	19,026.9	27.391	19,026.9	20.7494
19,697.8	81.7253	19,697.8	77.7542	19,697.8	78.2523	19,697.8	60.0872	19,697.8	60.0569	19,697.8	65.051	19,697.8	65.4112	19,697.8	64.0235	19,697.8	62.348	19,697.8	56.8679	19,697.8	49.7147	19,697.8	46.8512	19,697.8	47.995	19,697.8	34.2751	19,697.8	47.5523	19,697.8	22.0307	19,697.8	36.2208	19,697.8	34.093	19,697.8	47.5911	19,697.8	25.2734	19,697.8	56.1172	19,697.8	30.971	19,697.8	48.2111	19,697.8	23.3826	19,697.8	40.7597	19,697.8	28.1854	19,697.8	10.7955	19,697.8	19.9422	19,697.8	21.1673	19,697.8	30.3334	19,697.8	13.1954	19,697.8	30.8318	19,697.8	19.5338	19,697.8	28.2823	19,697.8	31.9858	19,697.8	28.212
19,999.5	81.0481	19,999.5	77.0566	19,999.5	77.7376	19,999.5	60.4915	19,999.5	57.9481	19,999.5	65.1699	19,999.5	65.1622	19,999.5	62.9963	19,999.5	61.7319	19,999.5	57.5086	19,999.5	45.914	19,999.5	39.6002	19,999.5	49.4538	19,999.5	36.9127	19,999.5	50.8128	19,999.5	34.3025	19,999.5	33.2552	19,999.5	37.9013	19,999.5	47.5618	19,999.5	25.5459	19,999.5	55.484	19,999.5	34.5343	19,999.5	47.9251	19,999.5	36.912	19,999.5	40.5376	19,999.5	39.7869	19,999.5	37.2373	19,999.5	38.3275	19,999.5	37.5438	19,999.5	35.1291	19,999.5	39.2894	19,999.5	33.0894	19,999.5	44.3941	19,999.5	36.3814	19,999.5	36.3996	19,999.5	31.6534
