Freq[Hz]     dBSPL  Phase[Deg]
5.00000     31.951   141.818
5.07273     32.321   134.895
5.14651     32.691   127.972
5.22137     33.061   121.048
5.29732     33.538   113.888
5.37437     34.081   106.585
5.45254     34.623    99.281
5.53185     35.085    92.192
5.61231     35.425    85.424
5.69394     35.765    78.655
5.77676     36.054    71.947
5.86079     36.239    65.367
5.94604     36.424    58.786
6.03252     36.545    52.251
6.12027     36.560    45.795
6.20929     36.575    39.337
6.29961     36.408    32.868
6.39124     36.092    26.391
6.48420     35.775    19.912
6.57851     35.162    13.118
6.67420     34.488     6.260
6.77128     33.722    -0.767
6.86977     32.625    -8.398
6.96969     31.528   -16.030
7.07107     29.683   -25.808
7.17392     27.517   -36.508
7.27827     25.606   -52.094
7.38413     24.386   -80.928
7.49154     23.165  -109.761
7.60050     22.799  -140.508
7.71105     22.506  -171.415
7.82321     23.687   169.966
7.93701     25.658   157.929
8.05245     27.062   149.106
8.16958     27.781   144.169
8.28841     28.382   140.495
8.40896     28.736   139.486
8.53128     29.003   139.689
8.65537     29.018   143.449
8.78126     29.235   147.746
8.90899     30.071   153.680
9.03857     30.991   159.138
9.17004     32.112   163.464
9.30342     33.311   166.227
9.43874     34.625   166.636
9.57603     35.744   165.555
9.71532     36.704   163.265
9.85663     37.425   160.122
10.0000     38.067   156.699
10.1455     38.375   152.622
10.2930     38.528   148.589
10.4427     38.303   144.676
10.5946     37.846   141.587
10.7487     37.247   139.001
10.9051     36.260   138.383
11.0637     35.132   139.777
11.2246     33.798   144.170
11.3879     32.992   152.458
11.5535     32.473   162.421
11.7216     32.354   174.379
11.8921     33.089  -177.909
12.0650     33.871  -172.340
12.2405     34.446  -168.928
12.4186     34.762  -166.617
12.5992     34.866  -163.858
12.7825     34.834  -159.959
12.9684     34.924  -152.694
13.1570     35.329  -144.790
13.3484     36.239  -137.209
13.5426     37.624  -131.479
13.7395     39.213  -130.855
13.9394     40.677  -132.564
14.1421     41.868  -137.085
14.3478     42.834  -143.336
14.5565     43.592  -150.463
14.7683     44.085  -158.233
14.9831     44.272  -166.240
15.2010     44.220  -173.554
15.4221     44.077  -179.967
15.6464     43.736   175.572
15.8740     43.396   173.315
16.1049     43.302   173.468
16.3392     43.626   175.602
16.5768     44.430   178.079
16.8179     45.560   179.228
17.0626     46.872   178.006
17.3107     48.228   175.154
17.5625     49.376   171.154
17.8180     50.256   166.596
18.0771     50.966   162.170
18.3401     51.575   158.241
18.6068     52.038   155.277
18.8775     52.378   153.405
19.1521     52.722   152.482
19.4306     53.071   152.406
19.7133     53.596   152.955
20.0000     54.184   153.556
20.2909     54.898   153.832
20.5860     55.572   153.625
20.8855     56.225   152.800
21.1893     56.878   151.334
21.4975     57.564   149.411
21.8102     58.096   147.199
22.1274     58.561   144.897
22.4492     58.969   142.622
22.7758     59.520   140.449
23.1071     59.871   138.364
23.4432     60.408   136.254
23.7841     60.854   133.994
24.1301     61.408   131.536
24.4811     62.054   128.981
24.8372     62.539   126.466
25.1984     63.118   124.123
25.5649     63.522   122.044
25.9368     64.023   120.209
26.3141     64.687   118.541
26.6968     65.314   116.953
27.0851     65.898   115.391
27.4791     66.466   113.842
27.8788     67.018   112.311
28.2843     67.640   110.795
28.6957     68.212   109.283
29.1131     68.735   107.750
29.5365     69.309   106.167
29.9661     69.772   104.494
30.4020     70.183   102.691
30.8442     70.712   100.745
31.2929     71.233    98.683
31.7480     71.697    96.519
32.2098     72.151    94.242
32.6783     72.742    91.827
33.1536     73.222    89.310
33.6359     73.708    86.761
34.1251     74.268    84.234
34.6215     74.845    81.718
35.1250     75.349    79.153
35.6359     75.908    76.536
36.1543     76.323    73.972
36.6802     76.743    71.567
37.2137     77.170    69.293
37.7550     77.505    66.965
38.3041     78.021    64.429
38.8613     78.344    61.798
39.4265     78.670    59.204
40.0000     78.999    56.644
40.5818     79.232    53.972
41.1721     79.537    51.160
41.7710     79.807    48.362
42.3785     80.050    45.768
42.9949     80.297    43.342
43.6203     80.447    41.038
44.2548     80.701    38.867
44.8985     80.858    36.785
45.5515     81.220    34.640
46.2141     81.465    32.421
46.8863     81.599    30.284
47.5683     81.826    28.198
48.2602     81.903    25.930
48.9621     82.084    23.517
49.6743     82.235    21.278
50.3968     82.237    19.274
51.1299     82.451    17.328
51.8736     82.648    15.390
52.6281     82.750    13.494
53.3936     82.956    11.600
54.1702     82.975     9.738
54.9581     83.199     7.928
55.7575     83.302     6.032
56.5685     83.599     3.972
57.3914     83.699     1.813
58.2261     83.699    -0.409
59.0730     83.928    -2.652
59.9323     83.999    -4.834
60.8040     84.199    -6.846
61.6884     84.254    -8.735
62.5857     84.399   -10.701
63.4960     84.538   -12.561
64.4196     84.699   -14.196
65.3566     84.799   -15.981
66.3073     84.999   -17.913
67.2717     85.008   -19.879
68.2502     85.299   -21.992
69.2429     85.391   -24.042
70.2501     85.582   -25.981
71.2719     85.699   -27.875
72.3086     85.922   -29.642
73.3603     86.131   -31.477
74.4274     86.375   -33.395
75.5099     86.499   -35.315
76.6083     86.642   -37.248
77.7226     86.812   -39.187
78.8531     87.067   -41.217
80.0000     87.199   -43.131
81.1636     87.399   -45.042
82.3442     87.614   -47.000
83.5419     87.716   -48.863
84.7570     87.957   -50.700
85.9899     88.195   -52.532
87.2406     88.399   -54.507
88.5096     88.603   -56.487
89.7970     88.818   -58.558
91.1031     89.149   -60.776
92.4282     89.379   -63.202
93.7726     89.599   -65.517
95.1366     89.799   -68.123
96.5204     89.959   -70.886
97.9243     90.099   -73.855
99.3486     90.270   -76.935
100.794     90.299   -79.643
102.260     90.199   -81.735
103.747     90.199   -83.309
105.256     90.370   -85.049
106.787     90.449   -87.134
108.340     90.566   -89.094
109.916     90.732   -91.119
111.515     90.928   -93.468
113.137     90.999   -95.947
114.783     90.899   -98.614
116.452     90.913  -101.130
118.146     90.970  -103.391
119.865     90.899  -105.629
121.608     90.799  -107.123
123.377     90.899  -109.104
125.171     90.899  -111.156
126.992     90.928  -113.282
128.839     90.981  -115.690
130.713     90.799  -118.191
132.615     90.837  -120.633
134.543     90.699  -123.173
136.500     90.559  -125.568
138.486     90.519  -127.680
140.500     90.443  -130.052
142.544     90.216  -132.314
144.617     90.022  -134.120
146.721     89.927  -135.843
148.855     89.728  -137.645
151.020     89.571  -139.269
153.217     89.410  -140.839
155.445     89.266  -142.575
157.706     89.082  -144.377
160.000     88.840  -146.181
162.327     88.602  -147.756
164.688     88.382  -148.570
167.084     88.199  -149.002
169.514     88.070  -149.858
171.980     87.838  -151.168
174.481     87.589  -152.370
177.019     87.299  -153.205
179.594     86.952  -153.250
182.206     86.762  -153.047
184.856     86.622  -153.196
187.545     86.442  -153.518
190.273     86.323  -153.808
193.041     86.197  -153.985
195.849     85.970  -154.334
198.697     85.743  -154.691
201.587     85.596  -154.417
204.520     85.407  -154.066
207.494     85.317  -154.079
210.512     85.185  -154.531
213.574     85.095  -154.817
216.681     84.980  -154.834
219.833     84.732  -154.444
223.030     84.661  -153.564
226.274     84.570  -152.879
229.565     84.478  -152.441
232.905     84.439  -152.381
236.292     84.327  -152.324
239.729     84.227  -151.794
243.216     84.109  -150.914
246.754     84.100  -149.797
250.343     84.105  -149.012
253.984     84.111  -148.643
257.678     84.120  -148.547
261.426     84.004  -148.158
265.229     84.066  -147.651
269.087     84.079  -147.272
273.001     84.129  -146.874
276.972     84.196  -146.724
281.000     84.229  -146.825
285.088     84.267  -147.035
289.234     84.366  -147.384
293.441     84.444  -147.880
297.709     84.545  -148.529
302.040     84.576  -149.308
306.433     84.579  -150.198
310.890     84.586  -151.198
315.412     84.499  -152.243
320.000     84.499  -153.297
324.655     84.431  -154.318
329.377     84.299  -155.299
334.168     84.135  -156.293
339.028     83.930  -157.205
343.959     83.713  -158.004
348.962     83.514  -158.669
354.038     83.306  -159.174
359.188     83.035  -159.516
364.412     82.766  -159.665
369.713     82.513  -159.624
375.090     82.286  -159.429
380.546     82.126  -159.142
386.081     81.999  -158.865
391.697     81.862  -158.710
397.394     81.743  -158.803
403.175     81.632  -159.222
409.039     81.523  -160.045
414.989     81.387  -161.290
421.025     81.193  -162.886
427.149     80.868  -164.724
433.362     80.458  -166.665
439.665     79.916  -168.642
446.060     79.305  -170.312
452.548     78.560  -171.414
459.131     77.666  -171.700
465.809     76.683  -170.859
472.584     75.699  -168.779
479.458     74.804  -165.557
486.432     73.999  -161.454
493.507     73.264  -156.929
500.686     72.594  -152.356
507.968     71.949  -147.846
515.357     71.259  -142.965
522.853     70.604  -136.903
530.458     69.999  -129.161
538.174     69.637  -120.301
546.002     69.742  -111.713
553.943     70.135  -104.702
562.001     70.604   -99.915
570.175     70.916   -96.969
578.469     70.977   -94.799
586.883     70.777   -92.179
595.419     70.442   -88.022
604.080     70.216   -81.794
612.866     70.324   -74.282
621.780     70.851   -67.323
630.824     71.607   -62.392
640.000     72.307   -59.678
649.309     72.807   -58.285
658.753     73.091   -57.181
668.335     73.232   -55.619
678.056     73.349   -53.512
687.919     73.556   -51.327
697.925     73.840   -49.804
708.077     74.110   -49.299
718.376     74.199   -49.337
728.825     73.989   -48.772
739.426     73.527   -46.055
750.181     73.122   -40.053
761.093     73.159   -31.732
772.163     73.836   -24.491
783.394     74.883   -20.818
794.789     75.783   -20.676
806.349     76.325   -22.347
818.078     76.499   -23.902
829.977     76.440   -23.935
842.050     76.399   -22.015
854.298     76.499   -19.119
866.724     76.870   -16.935
879.330     77.296   -16.357
892.120     77.585   -16.934
905.097     77.638   -17.423
918.262     77.549   -17.489
931.618     77.407   -17.191
945.169     77.234   -16.837
958.917     76.983   -16.643
972.864     76.581   -16.242
987.015     76.007   -14.730
1001.37     75.397   -11.366
1015.94     74.962    -6.659
1030.71     74.792    -2.215
1045.71     74.685     1.129
1060.92     74.513     4.079
1076.35     74.282     8.008
1092.00     74.222    13.417
1107.89     74.515    19.296
1124.00     75.140    24.211
1140.35     76.030    27.280
1156.94     77.101    27.528
1173.77     78.132    24.051
1190.84     78.805    17.199
1208.16     78.914     8.869
1225.73     78.391     1.928
1243.56     77.640    -0.938
1261.65     77.303    -0.525
1280.00     77.431    -1.627
1298.62     77.479    -6.756
1317.51     77.053   -13.415
1336.67     76.167   -17.449
1356.11     75.357   -17.689
1375.84     75.021   -17.459
1395.85     74.999   -19.782
1416.15     74.919   -24.150
1436.75     74.540   -28.991
1457.65     73.663   -33.321
1478.85     72.396   -33.985
1500.36     71.460   -29.195
1522.19     71.299   -23.916
1544.33     71.215   -22.386
1566.79     70.878   -22.155
1589.58     70.632   -20.884
1612.70     70.543   -19.339
1636.16     70.430   -17.524
1659.95     70.316   -15.293
1684.10     70.177   -13.385
1708.60     70.099   -10.840
1733.45     70.414    -7.673
1758.66     71.096    -6.785
1784.24     71.539    -8.368
1810.19     71.685    -9.753
1836.52     71.869   -10.737
1863.24     72.254   -13.490
1890.34     72.338   -17.694
1917.83     71.807   -19.778
1945.73     71.198   -17.807
1974.03     71.244   -14.820
2002.74     71.657   -13.327
2031.87     72.083   -13.175
2061.43     72.569   -16.019
2091.41     72.811   -21.701
2121.83     72.429   -26.287
2152.69     71.811   -26.792
2184.01     71.650   -24.292
2215.77     71.906   -23.294
2248.00     72.084   -25.161
2280.70     72.147   -27.652
2313.87     72.176   -31.531
2347.53     71.698   -36.542
2381.68     70.597   -38.015
2416.32     69.867   -34.586
2451.46     69.663   -32.612
2487.12     69.238   -32.714
2523.30     68.940   -32.532
2560.00     68.425   -35.052
2597.24     67.105   -34.691
2635.01     65.796   -27.155
2673.34     65.405   -19.815
2712.23     65.157   -12.788
2751.68     65.285    -5.409
2791.70     65.501    -4.205
2832.31     64.942    -1.023
2873.50     64.787     9.734
2915.30     65.632    17.390
2957.70     66.427    19.889
3000.72     67.057    18.606
3044.37     66.725    16.530
3088.65     66.097    20.683
3133.58     66.188    26.955
3179.16     66.671    29.465
3225.40     67.156    27.341
3272.31     66.583    24.133
3319.91     65.655    26.996
3368.20     64.897    33.694
3417.19     64.727    41.431
3466.89     65.222    44.628
3517.32     64.903    44.106
3568.48     64.025    47.863
3620.39     63.490    55.250
3673.05     63.133    62.435
3726.47     62.798    66.015
3780.67     61.977    72.650
3835.67     62.129    85.342
3891.46     62.601    93.515
3948.06     62.764    97.873
4005.49     62.396   105.401
4063.75     63.101   111.775
4122.86     63.207   115.478
4182.82     63.129   121.489
4243.66     63.453   126.015
4305.39     63.826   127.618
4368.01     63.175   129.917
4431.55     62.606   133.623
4496.01     62.135   139.829
4561.40     61.872   142.200
4627.75     60.890   149.330
4695.06     59.933   157.621
4763.35     59.651   167.397
4832.64     59.042   174.308
4902.93     58.628  -170.820
4974.24     59.156  -160.960
5046.60     59.276  -158.497
5120.00     59.070  -151.066
5194.47     59.143  -144.748
5270.03     58.741  -140.630
5346.68     58.064  -135.517
5424.45     57.257  -129.645
5503.35     56.399  -122.198
5583.40     55.999  -109.445
5664.61     55.903  -101.512
5747.01     55.316   -92.549
5830.60     55.002   -84.886
5915.41     53.731   -76.823
6001.45     53.626   -60.524
6088.74     53.534   -49.672
6177.30     53.472   -38.139
6267.15     54.035   -28.870
6358.31     54.054   -25.250
6450.80     53.258   -16.817
6544.62     52.467   -11.831
6639.82     50.551     2.662
6736.40     49.486    22.057
6834.38     48.342    46.545
6933.79     49.213    69.885
7034.64     50.059    82.778
7136.96     50.603    97.419
7240.77     51.129   110.289
7346.09     51.577   122.177
7452.94     51.872   131.415
7561.35     51.589   138.879
7671.33     51.084   149.405
7782.91     49.451   165.542
7896.12     49.537  -168.434
8010.97     49.998  -146.937
8127.49     51.209  -129.189
8245.71     52.156  -122.111
8365.65     52.847  -113.247
8487.33     52.493  -103.073
8610.78     52.150   -89.406
8736.03     51.579   -77.311
8863.09     51.562   -60.789
8992.01     51.405   -44.128
9122.80     51.729   -28.794
9255.50     52.682   -14.093
9390.12     53.188    -2.972
9526.70     52.907     6.461
9665.27     51.886    19.624
9805.86     51.006    36.796
9948.49     50.060    56.449
10093.2     50.109    83.395
10240.0     50.876   105.170
10388.9     51.610   121.227
10540.1     51.921   135.445
10693.4     51.697   152.541
10848.9     51.401   172.503
11006.7     51.449  -166.948
11166.8     52.015  -148.562
11329.2     51.568  -131.308
11494.0     51.214  -105.346
11661.2     52.719   -83.641
11830.8     53.925   -69.876
12002.9     53.893   -57.497
12177.5     53.526   -42.095
12354.6     53.399   -25.321
12534.3     53.263    -9.664
12716.6     52.492     7.597
12901.6     51.279    30.032
13089.2     51.084    56.075
13279.6     51.992    77.649
13472.8     52.187    93.639
13668.8     51.824   105.823
13867.6     50.633   122.870
14069.3     49.653   151.515
14273.9     49.480   174.468
14481.5     49.112  -166.468
14692.2     48.833  -144.470
14905.9     48.258  -119.515
15122.7     47.918   -97.026
15342.7     47.287   -76.159
15565.8     46.386   -53.570
15792.2     45.897   -22.784
16021.9     45.992     0.061
16255.0     45.031    18.095
16491.4     43.554    43.478
16731.3     42.431    67.389
16974.7     41.542    91.928
17221.6     39.454   122.496
17472.1     38.212   161.459
17726.2     37.744  -164.485
17984.0     36.661  -118.867
18245.6     36.591   -64.803
18511.0     37.611   -33.568
18780.2     38.381   -10.226
19053.4     39.694    29.887
19330.5     39.876    51.503
19611.7     37.254    80.853
19897.0     36.705   109.896
20186.4     36.334   132.765
20480.0     35.964   155.634
20777.9     35.594   178.500
21080.1     35.223  -158.631
21386.7     34.853  -135.762
21697.8     34.483  -112.897
22013.4     34.113   -90.029
22333.6     33.742   -67.162
22658.4     33.372   -44.292
22988.0     33.002   -21.425
23322.4     32.631     1.439
23661.6     32.261    24.310
24005.8     31.891    47.174
24355.0     31.521    70.040
24709.2     31.150    92.911
25068.6     30.780   115.778
25433.2     30.410   138.648
25803.2     30.039   161.511
26178.5     29.669  -175.621
26559.3     29.299  -152.755
26945.6     28.929  -129.887
27337.5     28.558  -107.017
27735.2     28.188   -84.154
28138.6     27.818   -61.286
28547.9     27.447   -38.418
28963.1     27.077   -15.549
29384.4     26.707     7.317
29811.8     26.336    30.185
30245.4     25.966    53.053
30685.3     25.596    75.922
31131.7     25.226    98.786
31584.5     24.855   121.655
32043.9     24.485   144.522
32510.0     24.115   167.389
32982.8     23.744  -169.740
33462.6     23.374  -146.876
33949.3     23.004  -124.006
34443.1     22.634  -101.139
34944.1     22.263   -78.273
35452.4     21.893   -55.406
35968.0     21.523   -32.536
36491.2     21.152    -9.670
37022.0     20.782    13.197
37560.5     20.412    36.063
38106.8     20.042    58.933
38661.1     19.671    81.799
39223.4     19.301   104.668
39793.9     18.931   127.536
