Freq[Hz]     dBSPL  Phase[Deg]
5.00000     35.892   142.277
5.07273     36.231   135.400
5.14651     36.571   128.524
5.22137     36.911   121.647
5.29732     37.358   114.536
5.37437     37.870   107.282
5.45254     38.383   100.028
5.53185     38.814    92.988
5.61231     39.123    86.271
5.69394     39.433    79.554
5.77676     39.692    72.899
5.86079     39.847    66.372
5.94604     40.001    59.845
6.03252     40.092    53.366
6.12027     40.076    46.965
6.20929     40.061    40.563
6.29961     39.864    34.152
6.39124     39.517    27.733
6.48420     39.171    21.313
6.57851     38.527    14.579
6.67420     37.823     7.781
6.77128     37.026     0.816
6.86977     35.899    -6.753
6.96969     34.772   -14.321
7.07107     32.897   -24.035
7.17392     30.700   -34.670
7.27827     28.759   -50.190
7.38413     27.508   -78.956
7.49154     26.257  -107.721
7.60050     25.861  -138.399
7.71105     25.538  -169.236
7.82321     26.688   172.216
7.93701     28.629   160.252
8.05245     30.002   151.502
8.16958     30.691   146.639
8.28841     31.262   143.041
8.40896     31.585   142.108
8.53128     31.822   142.389
8.65537     31.807   146.228
8.78126     31.994   150.604
8.90899     32.799   156.620
9.03857     33.689   162.160
9.17004     34.780   166.569
9.30342     35.948   169.417
9.43874     37.232   169.911
9.57603     38.321   168.918
9.71532     39.251   166.716
9.85663     39.941   163.663
10.0000     40.553   160.330
10.1455     40.830   156.346
10.2930     40.953   152.407
10.4427     40.698   148.588
10.5946     40.210   145.596
10.7487     39.581   143.108
10.9051     38.564   142.589
11.0637     37.406   144.084
11.2246     36.041   148.578
11.3879     35.205   156.970
11.5535     34.656   167.039
11.7216     34.506   179.103
11.8921     35.210  -173.076
12.0650     35.963  -167.398
12.2405     36.508  -163.875
12.4186     36.793  -161.451
12.5992     36.867  -158.577
12.7825     36.805  -154.562
12.9684     36.863  -147.178
13.1570     37.239  -139.155
13.3484     38.118  -131.453
13.5426     39.473  -125.599
13.7395     41.032  -124.850
13.9394     42.466  -126.433
14.1421     43.626  -130.825
14.3478     44.562  -136.946
14.5565     45.290  -143.940
14.7683     45.752  -151.575
14.9831     45.909  -159.446
15.2010     45.826  -166.622
15.4221     45.653  -172.895
15.6464     45.282  -177.214
15.8740     44.911  -179.326
16.1049     44.787  -179.026
16.3392     45.081  -176.744
16.5768     45.854  -174.116
16.8179     46.954  -172.814
17.0626     48.236  -173.881
17.3107     49.561  -176.576
17.5625     50.679   179.584
17.8180     51.529   175.189
18.0771     52.208   170.927
18.3401     52.788   167.165
18.6068     53.220   164.370
18.8775     53.529   162.669
19.1521     53.843   161.921
19.4306     54.162   162.022
19.7133     54.657   162.750
20.0000     55.214   163.533
20.2909     55.898   163.994
20.5860     56.572   163.975
20.8855     57.222   163.353
21.1893     57.792   162.090
21.4975     58.464   160.368
21.8102     58.940   158.356
22.1274     59.403   156.251
22.4492     59.838   154.171
22.7758     60.300   152.189
23.1071     60.581   150.291
23.4432     61.207   148.364
23.7841     61.559   146.281
24.1301     62.108   143.996
24.4811     62.669   141.606
24.8372     63.139   139.250
25.1984     63.637   137.058
25.5649     64.022   135.122
25.9368     64.523   133.421
26.3141     65.102   131.879
26.6968     65.714   130.406
27.0851     66.201   128.948
27.4791     66.762   127.492
27.8788     67.218   126.041
28.2843     67.817   124.593
28.6957     68.312   123.136
29.1131     68.785   121.643
29.5365     69.309   120.087
29.9661     69.689   118.427
30.4020     70.182   116.621
30.8442     70.612   114.655
31.2929     71.088   112.557
31.7480     71.497   110.342
32.2098     71.951   107.996
32.6783     72.442   105.494
33.1536     72.869   102.874
33.6359     73.308   100.205
34.1251     73.849    97.540
34.6215     74.345    94.868
35.1250     74.758    92.132
35.6359     75.308    89.324
36.1543     75.650    86.554
36.6802     76.043    83.927
37.2137     76.470    81.414
37.7550     76.705    78.831
38.3041     77.221    76.027
38.8613     77.444    73.113
39.4265     77.770    70.222
40.0000     78.099    67.354
40.5818     78.250    64.362
41.1721     78.537    61.220
41.7710     78.807    58.083
42.3785     78.978    55.140
42.9949     79.197    52.360
43.6203     79.347    49.696
44.2548     79.601    47.161
44.8985     79.758    44.712
45.5515     80.120    42.197
46.2141     80.365    39.610
46.8863     80.499    37.106
47.5683     80.726    34.656
48.2602     80.803    32.028
48.9621     80.984    29.261
49.6743     81.135    26.674
50.3968     81.199    24.331
51.1299     81.451    22.055
51.8736     81.648    19.798
52.6281     81.750    17.595
53.3936     81.956    15.408
54.1702     82.067    13.265
54.9581     82.299    11.190
55.7575     82.502     9.045
56.5685     82.799     6.752
57.3914     82.899     4.376
58.2261     82.999     1.955
59.0730     83.228    -0.468
59.9323     83.399    -2.814
60.8040     83.599    -4.971
61.6884     83.699    -6.986
62.5857     83.899    -9.061
63.4960     84.038   -11.011
64.4196     84.299   -12.718
65.3566     84.399   -14.558
66.3073     84.693   -16.527
67.2717     84.708   -18.515
68.2502     84.999   -20.633
69.2429     85.191   -22.674
70.2501     85.382   -24.588
71.2719     85.561   -26.445
72.3086     85.822   -28.162
73.3603     86.031   -29.936
74.4274     86.299   -31.783
75.5099     86.499   -33.621
76.6083     86.642   -35.466
77.7226     86.812   -37.310
78.8531     87.099   -39.239
80.0000     87.299   -41.047
81.1636     87.499   -42.850
82.3442     87.714   -44.698
83.5419     87.903   -46.450
84.7570     88.057   -48.177
85.9899     88.376   -49.901
87.2406     88.576   -51.771
88.5096     88.734   -53.650
89.7970     89.018   -55.625
91.1031     89.349   -57.753
92.4282     89.579   -60.097
93.7726     89.799   -62.337
95.1366     89.999   -64.877
96.5204     90.159   -67.583
97.9243     90.299   -70.504
99.3486     90.470   -73.547
100.794     90.422   -76.227
102.260     90.399   -78.301
103.747     90.399   -79.869
105.256     90.528   -81.611
106.787     90.649   -83.708
108.340     90.766   -85.689
109.916     90.932   -87.743
111.515     91.079   -90.129
113.137     91.199   -92.652
114.783     91.099   -95.368
116.452     91.113   -97.939
118.146     91.170  -100.257
119.865     90.999  -102.555
121.608     90.999  -104.111
123.377     91.099  -106.152
125.171     91.099  -108.265
126.992     91.028  -110.447
128.839     91.181  -112.909
130.713     90.999  -115.457
132.615     91.037  -117.943
134.543     90.916  -120.520
136.500     90.799  -122.946
138.486     90.759  -125.079
140.500     90.693  -127.467
142.544     90.499  -129.738
144.617     90.302  -131.546
146.721     90.210  -133.264
148.855     90.045  -135.055
151.020     89.905  -136.663
153.217     89.760  -138.214
155.445     89.649  -139.928
157.706     89.449  -141.707
160.000     89.240  -143.488
162.327     89.019  -145.043
164.688     88.832  -145.843
167.084     88.656  -146.266
169.514     88.542  -147.122
171.980     88.338  -148.443
174.481     88.122  -149.665
177.019     87.856  -150.532
179.594     87.538  -150.622
182.206     87.362  -150.477
184.856     87.250  -150.694
187.545     87.099  -151.083
190.273     87.023  -151.449
193.041     86.869  -151.700
195.849     86.670  -152.119
198.697     86.481  -152.543
201.587     86.296  -152.326
204.520     86.194  -152.022
207.494     86.017  -152.069
210.512     85.963  -152.547
213.574     85.795  -152.849
216.681     85.705  -152.874
219.833     85.488  -152.487
223.030     85.417  -151.608
226.274     85.337  -150.923
229.565     85.233  -150.489
232.905     85.194  -150.436
236.292     85.083  -150.395
239.729     85.017  -149.891
243.216     84.898  -149.047
246.754     84.910  -147.975
250.343     84.955  -147.245
253.984     84.991  -146.937
257.678     85.050  -146.901
261.426     85.004  -146.569
265.229     85.056  -146.104
269.087     85.134  -145.743
273.001     85.199  -145.335
276.972     85.314  -145.143
281.000     85.392  -145.166
285.088     85.492  -145.260
289.234     85.593  -145.466
293.441     85.728  -145.801
297.709     85.863  -146.286
302.040     85.951  -146.909
306.433     85.979  -147.660
310.890     86.078  -148.552
315.412     86.099  -149.537
320.000     86.145  -150.587
324.655     86.198  -151.660
329.377     86.145  -152.752
334.168     86.099  -153.924
339.028     86.007  -155.067
343.959     85.920  -156.142
348.962     85.868  -157.118
354.038     85.763  -157.961
359.188     85.635  -158.671
364.412     85.459  -159.215
369.713     85.328  -159.576
375.090     85.206  -159.788
380.546     85.139  -159.929
386.081     85.099  -160.094
391.697     85.099  -160.421
397.394     85.136  -161.058
403.175     85.199  -162.063
409.039     85.240  -163.568
414.989     85.299  -165.605
421.025     85.299  -168.101
427.149     85.224  -170.958
433.362     85.023  -174.067
439.665     84.716  -177.483
446.060     84.323   179.159
452.548     83.766   176.072
459.131     83.043   173.423
465.809     82.173   171.561
472.584     81.210   170.863
479.458     80.273   171.584
486.432     79.404   173.794
493.507     78.654   177.236
500.686     78.144  -178.814
507.968     77.879  -175.299
515.357     77.754  -172.711
522.853     77.685  -171.011
530.458     77.504  -169.878
538.174     77.170  -168.869
546.002     76.813  -167.589
553.943     76.449  -165.837
562.001     76.126  -163.748
570.175     75.886  -161.729
578.469     75.729  -160.236
586.883     75.564  -159.488
595.419     75.360  -159.269
604.080     75.045  -159.082
612.866     74.616  -158.339
621.780     74.155  -156.605
630.824     73.751  -153.962
640.000     73.507  -151.182
649.309     73.395  -149.201
658.753     73.276  -148.504
668.335     73.073  -148.883
678.056     72.684  -149.377
687.919     72.142  -148.663
697.925     71.636  -145.800
708.077     71.485  -141.321
718.376     71.788  -137.350
728.825     72.309  -136.191
739.426     72.747  -138.586
750.181     72.889  -143.838
761.093     72.572  -150.544
772.163     71.822  -156.944
783.394     70.760  -161.431
794.789     69.537  -162.771
806.349     68.576  -161.566
818.078     68.120  -160.920
829.977     67.955  -163.967
842.050     67.667  -171.619
854.298     67.038   177.173
866.724     66.020   163.977
879.330     64.699   149.419
892.120     63.416   134.267
905.097     62.630   118.827
918.262     62.780   102.870
931.618     63.577    86.740
945.169     64.477    71.009
958.917     65.020    56.263
972.864     64.986    43.505
987.015     64.337    34.597
1001.37     63.324    32.049
1015.94     62.677    36.666
1030.71     63.036    43.815
1045.71     63.928    48.323
1060.92     64.620    50.266
1076.35     65.004    52.498
1092.00     65.487    56.034
1107.89     66.301    59.255
1124.00     67.135    61.383
1140.35     67.786    64.518
1156.94     68.695    69.871
1173.77     70.322    73.438
1190.84     72.193    70.534
1208.16     73.556    61.962
1225.73     74.028    51.597
1243.56     73.703    43.522
1261.65     73.177    40.420
1280.00     73.197    40.647
1298.62     73.815    39.529
1317.51     74.453    35.116
1336.67     74.790    28.528
1356.11     74.824    20.994
1375.84     74.434    13.587
1395.85     73.590     9.006
1416.15     72.874    10.021
1436.75     73.117    13.368
1457.65     73.901    12.311
1478.85     74.280     7.098
1500.36     74.114     1.838
1522.19     73.766    -1.798
1544.33     73.386    -4.207
1566.79     73.055    -5.440
1589.58     72.999    -6.795
1612.70     72.907   -10.671
1636.16     72.248   -15.365
1659.95     71.073   -15.377
1684.10     70.351    -9.861
1708.60     70.495    -5.311
1733.45     70.743    -4.340
1758.66     70.799    -4.210
1784.24     70.823    -3.009
1810.19     71.109    -2.007
1836.52     71.483    -3.888
1863.24     71.432    -7.743
1890.34     70.839    -9.241
1917.83     70.338    -6.186
1945.73     70.444    -2.029
1974.03     70.937    -1.080
2002.74     71.261    -2.284
2031.87     71.405    -2.435
2061.43     71.641    -2.488
2091.41     71.759    -4.141
2121.83     71.610    -4.892
2152.69     71.774    -4.437
2184.01     72.161    -6.014
2215.77     72.263    -9.271
2248.00     72.012   -11.947
2280.70     71.660   -12.883
2313.87     71.499   -12.414
2347.53     71.499   -12.604
2381.68     71.370   -14.222
2416.32     71.122   -15.996
2451.46     70.819   -18.398
2487.12     70.208   -20.971
2523.30     69.365   -21.028
2560.00     68.488   -20.138
2597.24     67.634   -17.213
2635.01     67.138   -12.837
2673.34     66.848   -10.234
2712.23     66.525    -9.468
2751.68     65.707    -8.176
2791.70     64.491    -2.992
2832.31     63.512     6.173
2873.50     63.199    16.832
2915.30     63.469    25.154
2957.70     63.968    29.970
3000.72     63.676    32.224
3044.37     63.058    40.173
3088.65     63.184    50.499
3133.58     63.835    57.931
3179.16     64.792    61.563
3225.40     64.943    60.790
3272.31     64.572    62.459
3319.91     64.061    67.982
3368.20     63.787    76.720
3417.19     64.315    82.970
3466.89     64.499    86.166
3517.32     64.557    90.351
3568.48     64.247    95.820
3620.39     64.353   104.967
3673.05     65.106   108.819
3726.47     65.130   111.102
3780.67     65.009   114.271
3835.67     64.647   118.783
3891.46     64.689   125.870
3948.06     64.799   130.120
4005.49     64.780   134.662
4063.75     64.552   138.945
4122.86     64.399   145.444
4182.82     64.461   151.176
4243.66     64.661   155.568
4305.39     64.380   159.856
4368.01     64.253   164.470
4431.55     63.993   171.280
4496.01     64.067   176.588
4561.40     63.712  -177.617
4627.75     63.498  -173.082
4695.06     63.011  -166.159
4763.35     62.610  -157.942
4832.64     62.518  -150.826
4902.93     62.089  -143.929
4974.24     61.719  -135.592
5046.60     61.488  -126.607
5120.00     61.109  -118.421
5194.47     60.849  -108.334
5270.03     60.884   -94.468
5346.68     61.415   -86.829
5424.45     61.626   -79.945
5503.35     61.548   -70.749
5583.40     62.046   -63.737
5664.61     61.863   -57.238
5747.01     61.870   -48.199
5830.60     62.231   -41.304
5915.41     62.049   -36.477
6001.45     61.821   -30.350
6088.74     61.467   -24.414
6177.30     60.941   -16.254
6267.15     60.352    -7.939
6358.31     59.806     1.809
6450.80     59.279    11.607
6544.62     58.846    21.738
6639.82     58.413    35.374
6736.40     58.333    45.691
6834.38     57.628    55.728
6933.79     57.575    67.543
7034.64     57.042    78.377
7136.96     56.551    91.590
7240.77     56.146   103.460
7346.09     55.747   119.911
7452.94     55.974   135.190
7561.35     55.944   148.829
7671.33     56.340   161.366
7782.91     56.162   174.151
7896.12     56.584  -172.806
8010.97     56.937  -160.410
8127.49     57.454  -149.357
8245.71     57.184  -142.701
8365.65     56.632  -132.760
8487.33     55.844  -120.842
8610.78     55.333  -108.155
8736.03     54.844   -94.195
8863.09     54.345   -78.949
8992.01     54.045   -65.508
9122.80     53.627   -52.289
9255.50     53.156   -39.254
9390.12     52.253   -23.899
9526.70     51.593    -5.555
9665.27     51.013    15.024
9805.86     50.630    36.275
9948.49     50.870    56.878
10093.2     51.506    76.885
10240.0     52.184    90.495
10388.9     52.037   101.123
10540.1     51.214   113.104
10693.4     49.589   127.885
10848.9     48.596   150.172
11006.7     48.819   174.170
11166.8     49.024  -168.104
11329.2     47.739  -151.966
11494.0     46.219  -122.460
11661.2     47.240   -98.472
11830.8     47.325   -78.780
12002.9     47.495   -59.706
12177.5     47.941   -36.733
12354.6     48.855   -20.319
12534.3     49.279    -9.837
12716.6     48.019     1.659
12901.6     46.613    21.642
13089.2     45.653    46.771
13279.6     45.418    69.968
13472.8     45.032    90.433
13668.8     44.531   102.962
13867.6     43.190   123.011
14069.3     42.343   155.366
14273.9     42.180   178.270
14481.5     41.493  -169.075
14692.2     40.207  -144.570
14905.9     39.504  -106.077
15122.7     39.592   -83.165
15342.7     39.184   -64.671
15565.8     38.529   -37.621
15792.2     36.723    -2.346
16021.9     37.201    24.673
16255.0     37.351    51.561
16491.4     36.127    86.172
16731.3     37.955    92.118
16974.7     37.059   103.132
17221.6     34.512   151.434
17472.1     35.145  -162.941
17726.2     35.359  -125.079
17984.0     35.583   -63.529
18245.6     37.414   -41.907
18511.0     37.522   -34.792
18780.2     37.684   -16.566
19053.4     38.956     0.731
19330.5     39.072    18.399
19611.7     35.902    43.199
19897.0     33.579    70.055
20186.4     33.199    93.504
20480.0     32.818   116.952
20777.9     32.437   140.399
21080.1     32.057   163.848
21386.7     31.676  -172.703
21697.8     31.296  -149.258
22013.4     30.915  -125.810
22333.6     30.534  -102.363
22658.4     30.154   -78.912
22988.0     29.773   -55.466
23322.4     29.392   -32.021
23661.6     29.012    -8.571
24005.8     28.631    14.874
24355.0     28.251    38.319
24709.2     27.870    61.771
25068.6     27.489    85.218
25433.2     27.109   108.668
25803.2     26.728   132.111
26178.5     26.348   155.559
26559.3     25.967   179.005
26945.6     25.586  -157.547
27337.5     25.206  -134.097
27735.2     24.825  -110.654
28138.6     24.445   -87.205
28547.9     24.064   -63.759
28963.1     23.683   -40.308
29384.4     23.303   -16.863
29811.8     22.922     6.586
30245.4     22.541    30.034
30685.3     22.161    53.484
31131.7     21.780    76.927
31584.5     21.400   100.376
32043.9     21.019   123.823
32510.0     20.638   147.271
32982.8     20.258   170.721
33462.6     19.877  -165.834
33949.3     19.497  -142.385
34443.1     19.116  -118.937
34944.1     18.735   -95.491
35452.4     18.355   -72.044
35968.0     17.974   -48.594
36491.2     17.594   -25.147
37022.0     17.213    -1.702
37560.5     16.832    21.746
38106.8     16.452    45.195
38661.1     16.071    68.642
39223.4     15.690    92.090
39793.9     15.310   115.539
