Freq[Hz]     dBSPL  Phase[Deg]
5.00000     31.016   133.308
5.07273     31.398   126.418
5.14651     31.779   119.528
5.22137     32.160   112.638
5.29732     32.649   105.513
5.37437     33.203    98.245
5.45254     33.757    90.976
5.53185     34.230    83.922
5.61231     34.581    77.191
5.69394     34.932    70.459
5.77676     35.233    63.788
5.86079     35.429    57.246
5.94604     35.625    50.704
6.03252     35.757    44.208
6.12027     35.783    37.791
6.20929     35.809    31.374
6.29961     35.654    24.946
6.39124     35.349    18.510
6.48420     35.044    12.074
6.57851     34.441     5.323
6.67420     33.779    -1.493
6.77128     33.024    -8.476
6.86977     31.939   -16.062
6.96969     30.853   -23.649
7.07107     29.019   -33.381
7.17392     26.865   -44.035
7.27827     24.965   -59.574
7.38413     23.756   -88.360
7.49154     22.547  -117.144
7.60050     22.192  -147.841
7.71105     21.910  -178.699
7.82321     23.102   162.733
7.93701     25.084   150.748
8.05245     26.500   141.977
8.16958     27.230   137.093
8.28841     27.842   133.473
8.40896     28.207   132.518
8.53128     28.486   132.777
8.65537     28.512   136.593
8.78126     28.741   140.946
8.90899     29.587   146.939
9.03857     30.518   152.455
9.17004     31.651   156.841
9.30342     32.861   159.664
9.43874     34.187   160.134
9.57603     35.317   159.115
9.71532     36.288   156.889
9.85663     37.020   153.810
10.0000     37.674   150.451
10.1455     37.993   146.440
10.2930     38.157   142.474
10.4427     37.943   138.628
10.5946     37.498   135.608
10.7487     36.910   133.092
10.9051     35.934   132.544
11.0637     34.818   134.011
11.2246     33.495   138.476
11.3879     32.700   146.838
11.5535     32.193   156.876
11.7216     32.085   168.910
11.8921     32.831   176.700
12.0650     33.624  -177.654
12.2405     34.211  -174.162
12.4186     34.538  -171.771
12.5992     34.653  -168.930
12.7825     34.633  -164.948
12.9684     34.733  -157.598
13.1570     35.150  -149.610
13.3484     36.071  -141.942
13.5426     37.467  -136.124
13.7395     39.068  -135.411
13.9394     40.543  -137.030
14.1421     41.745  -141.459
14.3478     42.723  -147.617
14.5565     43.492  -154.649
14.7683     43.996  -162.323
14.9831     44.194  -170.233
15.2010     44.153  -177.449
15.4221     44.022   176.238
15.6464     43.693   171.878
15.8740     43.363   169.725
16.1049     43.281   169.983
16.3392     43.616   172.222
16.5768     44.431   174.807
16.8179     45.572   176.065
17.0626     46.896   174.954
17.3107     48.263   172.214
17.5625     49.422   168.327
17.8180     50.313   163.886
18.0771     51.034   159.577
18.3401     51.656   155.767
18.6068     52.129   152.924
18.8775     52.480   151.173
19.1521     52.836   150.375
19.4306     53.197   150.425
19.7133     53.733   151.102
20.0000     54.332   151.832
20.2909     55.057   152.241
20.5860     55.693   152.145
20.8855     56.425   151.443
21.1893     57.078   150.103
21.4975     57.764   148.307
21.8102     58.296   146.225
22.1274     58.761   144.055
22.4492     59.169   141.914
22.7758     59.720   139.876
23.1071     60.081   137.927
23.4432     60.708   135.955
23.7841     61.154   133.833
24.1301     61.708   131.514
24.4811     62.354   129.098
24.8372     62.839   126.722
25.1984     63.418   124.518
25.5649     63.903   122.577
25.9368     64.341   120.879
26.3141     64.987   119.347
26.6968     65.614   117.894
27.0851     66.198   116.465
27.4791     66.766   115.047
27.8788     67.318   113.645
28.2843     67.940   112.256
28.6957     68.512   110.868
29.1131     69.035   109.456
29.5365     69.609   107.991
29.9661     70.072   106.433
30.4020     70.583   104.742
30.8442     71.112   102.904
31.2929     71.633   100.947
31.7480     72.097    98.883
32.2098     72.551    96.703
32.6783     73.142    94.380
33.1536     73.622    91.953
33.6359     74.108    89.489
34.1251     74.668    87.043
34.6215     75.245    84.604
35.1250     75.749    82.113
35.6359     76.308    79.565
36.1543     76.723    77.067
36.6802     77.143    74.726
37.2137     77.570    72.511
37.7550     77.905    70.240
38.3041     78.421    67.758
38.8613     78.744    65.179
39.4265     79.070    62.634
40.0000     79.399    60.122
40.5818     79.632    57.497
41.1721     79.937    54.730
41.7710     80.207    51.976
42.3785     80.450    49.425
42.9949     80.697    47.042
43.6203     80.847    44.783
44.2548     81.101    42.656
44.8985     81.358    40.620
45.5515     81.720    38.521
46.2141     81.965    36.352
46.8863     82.099    34.266
47.5683     82.326    32.234
48.2602     82.503    30.023
48.9621     82.684    27.671
49.6743     82.835    25.496
50.3968     82.899    23.561
51.1299     83.151    21.688
51.8736     83.248    19.828
52.6281     83.450    18.016
53.3936     83.656    16.211
54.1702     83.767    14.443
54.9581     83.899    12.733
55.7575     84.102    10.944
56.5685     84.399     8.997
57.3914     84.527     6.957
58.2261     84.599     4.861
59.0730     84.797     2.750
59.9323     84.899     0.706
60.8040     85.195    -1.162
61.6884     85.199    -2.900
62.5857     85.309    -4.708
63.4960     85.538    -6.406
64.4196     85.699    -7.871
65.3566     85.852    -9.483
66.3073     86.093   -11.234
67.2717     86.108   -13.017
68.2502     86.399   -14.941
69.2429     86.499   -16.799
70.2501     86.682   -18.541
71.2719     86.861   -20.236
72.3086     87.022   -21.802
73.3603     87.299   -23.434
74.4274     87.499   -25.147
75.5099     87.699   -26.861
76.6083     87.842   -28.589
77.7226     88.012   -30.322
78.8531     88.267   -32.148
80.0000     88.444   -33.858
81.1636     88.636   -35.569
82.3442     88.814   -37.328
83.5419     89.003   -38.995
84.7570     89.157   -40.640
85.9899     89.476   -42.282
87.2406     89.676   -44.072
88.5096     89.834   -45.871
89.7970     90.038   -47.765
91.1031     90.426   -49.809
92.4282     90.679   -52.067
93.7726     90.899   -54.217
95.1366     91.099   -56.662
96.5204     91.259   -59.268
97.9243     91.399   -62.082
99.3486     91.570   -65.010
100.794     91.522   -67.568
102.260     91.499   -69.511
103.747     91.499   -70.936
105.256     91.670   -72.526
106.787     91.749   -74.461
108.340     91.950   -76.268
109.916     92.047   -78.136
111.515     92.228   -80.323
113.137     92.393   -82.635
114.783     92.299   -85.127
116.452     92.313   -87.462
118.146     92.370   -89.531
119.865     92.299   -91.567
121.608     92.199   -92.848
123.377     92.299   -94.604
125.171     92.399   -96.418
126.992     92.328   -98.292
128.839     92.481  -100.434
130.713     92.299  -102.652
132.615     92.337  -104.798
134.543     92.266  -107.017
136.500     92.139  -109.075
138.486     92.139  -110.870
140.500     92.060  -112.883
142.544     91.899  -114.742
144.617     91.722  -116.172
146.721     91.660  -117.512
148.855     91.495  -118.890
151.020     91.388  -120.087
153.217     91.277  -121.230
155.445     91.182  -122.541
157.706     91.032  -123.925
160.000     90.855  -125.287
162.327     90.686  -126.437
164.688     90.532  -126.879
167.084     90.413  -126.932
169.514     90.385  -127.416
171.980     90.238  -128.396
174.481     90.089  -129.329
177.019     89.885  -129.935
179.594     89.609  -129.775
182.206     89.524  -129.396
184.856     89.479  -129.407
187.545     89.399  -129.627
190.273     89.323  -129.829
193.041     89.355  -129.930
195.849     89.170  -130.205
198.697     89.031  -130.478
201.587     88.896  -130.108
204.520     88.882  -129.646
207.494     88.817  -129.530
210.512     88.785  -129.829
213.574     88.695  -129.945
216.681     88.680  -129.794
219.833     88.532  -129.222
223.030     88.561  -128.154
226.274     88.559  -127.295
229.565     88.511  -126.710
232.905     88.594  -126.536
236.292     88.605  -126.410
239.729     88.617  -125.865
243.216     88.642  -125.032
246.754     88.770  -124.030
250.343     88.895  -123.431
253.984     88.991  -123.307
257.678     89.130  -123.499
261.426     89.150  -123.437
265.229     89.266  -123.257
269.087     89.370  -123.182
273.001     89.479  -123.043
276.972     89.596  -123.090
281.000     89.665  -123.324
285.088     89.759  -123.582
289.234     89.848  -123.888
293.441     89.953  -124.249
297.709     90.072  -124.680
302.040     90.101  -125.159
306.433     90.179  -125.657
310.890     90.186  -126.169
315.412     90.199  -126.652
320.000     90.199  -127.079
324.655     90.273  -127.421
329.377     90.199  -127.687
334.168     90.199  -127.894
339.028     90.199  -128.035
343.959     90.199  -128.121
348.962     90.199  -128.170
354.038     90.199  -128.201
359.188     90.199  -128.230
364.412     90.199  -128.273
369.713     90.199  -128.340
375.090     90.206  -128.434
380.546     90.299  -128.561
386.081     90.299  -128.713
391.697     90.299  -128.888
397.394     90.299  -129.079
403.175     90.299  -129.265
409.039     90.299  -129.447
414.989     90.299  -129.618
421.025     90.299  -129.766
427.149     90.280  -129.888
433.362     90.199  -129.985
439.665     90.199  -130.062
446.060     90.199  -130.122
452.548     90.193  -130.175
459.131     90.099  -130.239
465.809     90.099  -130.333
472.584     90.099  -130.477
479.458     90.099  -130.691
486.432     90.099  -130.998
493.507     90.019  -131.414
500.686     89.949  -131.942
507.968     89.844  -132.559
515.357     89.719  -133.231
522.853     89.570  -133.926
530.458     89.351  -134.573
538.174     89.023  -135.064
546.002     88.689  -135.294
553.943     88.317  -135.142
562.001     87.913  -134.474
570.175     87.490  -133.167
578.469     87.090  -131.181
586.883     86.756  -128.657
595.419     86.521  -125.845
604.080     86.399  -123.011
612.866     86.332  -120.462
621.780     86.387  -118.376
630.824     86.371  -116.722
640.000     86.299  -115.318
649.309     86.199  -113.856
658.753     86.053  -112.030
668.335     85.921  -109.649
678.056     85.807  -106.892
687.919     85.835  -104.032
697.925     85.947  -101.451
708.077     86.128   -99.427
718.376     86.331   -97.881
728.825     86.430   -96.587
739.426     86.499   -95.260
750.181     86.592   -93.717
761.093     86.666   -91.969
772.163     86.766   -90.212
783.394     86.954   -88.595
794.789     87.136   -87.164
806.349     87.270   -85.923
818.078     87.435   -84.813
829.977     87.586   -83.907
842.050     87.749   -83.378
854.298     87.878   -83.316
866.724     87.899   -83.579
879.330     87.876   -83.768
892.120     87.736   -83.200
905.097     87.541   -81.341
918.262     87.421   -78.919
931.618     87.475   -76.807
945.169     87.499   -75.435
958.917     87.457   -74.641
972.864     87.286   -73.816
987.015     87.040   -72.391
1001.37     86.819   -70.299
1015.94     86.699   -68.073
1030.71     86.599   -66.210
1045.71     86.539   -64.582
1060.92     86.432   -62.723
1076.35     86.399   -60.481
1092.00     86.399   -58.190
1107.89     86.529   -56.268
1124.00     86.683   -54.716
1140.35     86.912   -53.333
1156.94     87.262   -52.443
1173.77     87.686   -52.772
1190.84     88.050   -54.514
1208.16     88.256   -56.960
1225.73     88.299   -59.148
1243.56     88.319   -60.724
1261.65     88.509   -62.297
1280.00     88.811   -64.743
1298.62     89.091   -68.321
1317.51     89.268   -72.746
1336.67     89.299   -77.574
1356.11     89.299   -82.413
1375.84     89.241   -87.154
1395.85     89.199   -91.976
1416.15     89.199   -96.981
1436.75     89.088  -101.769
1457.65     88.882  -106.337
1478.85     88.571  -110.387
1500.36     88.262  -113.879
1522.19     87.946  -117.182
1544.33     87.583  -120.266
1566.79     87.204  -122.850
1589.58     86.850  -125.001
1612.70     86.518  -126.870
1636.16     86.234  -128.295
1659.95     86.017  -129.231
1684.10     85.851  -129.956
1708.60     85.799  -130.650
1733.45     85.825  -131.523
1758.66     85.960  -133.009
1784.24     86.138  -135.243
1810.19     86.260  -137.908
1836.52     86.336  -140.759
1863.24     86.474  -144.027
1890.34     86.599  -148.100
1917.83     86.548  -152.435
1945.73     86.422  -156.178
1974.03     86.349  -159.729
2002.74     86.215  -163.601
2031.87     85.975  -166.919
2061.43     85.782  -169.297
2091.41     85.669  -171.611
2121.83     85.534  -173.688
2152.69     85.556  -175.516
2184.01     85.684  -178.295
2215.77     85.699   178.403
2248.00     85.699   175.343
2280.70     85.663   172.049
2313.87     85.575   168.651
2347.53     85.438   165.383
2381.68     85.231   162.535
2416.32     85.055   160.131
2451.46     84.925   157.759
2487.12     84.809   155.497
2523.30     84.693   152.841
2560.00     84.421   150.352
2597.24     84.231   148.298
2635.01     84.011   146.439
2673.34     83.823   145.242
2712.23     83.705   143.668
2751.68     83.532   142.044
2791.70     83.362   140.677
2832.31     83.131   139.311
2873.50     82.902   139.036
2915.30     82.750   138.907
2957.70     82.758   138.906
3000.72     82.745   137.736
3044.37     82.557   136.974
3088.65     82.381   136.754
3133.58     82.339   137.349
3179.16     82.474   137.354
3225.40     82.499   136.402
3272.31     82.422   135.594
3319.91     82.399   135.514
3368.20     82.419   135.518
3417.19     82.558   134.847
3466.89     82.574   133.518
3517.32     82.452   132.549
3568.48     82.243   132.568
3620.39     82.203   133.443
3673.05     82.318   133.696
3726.47     82.360   133.291
3780.67     82.223   133.212
3835.67     82.251   134.621
3891.46     82.461   135.024
3948.06     82.571   134.410
4005.49     82.552   134.526
4063.75     82.711   135.017
4122.86     82.799   134.488
4182.82     82.799   134.328
4243.66     82.918   134.742
4305.39     83.081   134.596
4368.01     83.113   134.361
4431.55     83.234   134.139
4496.01     83.361   133.653
4561.40     83.404   133.441
4627.75     83.539   133.182
4695.06     83.599   132.295
4763.35     83.572   132.065
4832.64     83.675   132.727
4902.93     83.926   132.285
4974.24     84.064   130.879
5046.60     84.185   129.265
5120.00     84.122   127.640
5194.47     83.952   126.473
5270.03     83.814   126.310
5346.68     83.799   125.983
5424.45     83.731   124.729
5503.35     83.475   124.464
5583.40     83.399   124.695
5664.61     83.267   124.045
5747.01     83.099   124.581
5830.60     82.984   124.761
5915.41     82.779   124.958
6001.45     82.629   125.610
6088.74     82.509   126.178
6177.30     82.329   126.543
6267.15     82.199   127.842
6358.31     82.164   128.423
6450.80     82.000   129.725
6544.62     81.959   131.015
6639.82     81.899   132.407
6736.40     81.899   133.852
6834.38     81.899   135.018
6933.79     81.942   136.365
7034.64     81.999   137.306
7136.96     82.035   138.435
7240.77     82.099   139.607
7346.09     82.229   141.056
7452.94     82.399   140.683
7561.35     82.367   140.549
7671.33     82.198   140.847
7782.91     82.005   142.723
7896.12     81.930   144.997
8010.97     81.951   147.903
8127.49     82.214   149.809
8245.71     82.513   150.944
8365.65     82.699   151.145
8487.33     82.699   151.465
8610.78     82.723   152.211
8736.03     82.784   153.962
8863.09     82.993   155.875
8992.01     83.307   157.392
9122.80     83.678   157.495
9255.50     83.893   156.603
9390.12     83.831   156.138
9526.70     83.799   156.949
9665.27     83.799   157.647
9805.86     83.847   158.814
9948.49     83.941   159.557
10093.2     83.957   160.084
10240.0     83.935   161.352
10388.9     83.926   162.157
10540.1     83.919   163.483
10693.4     84.063   164.900
10848.9     84.302   165.087
11006.7     84.399   163.616
11166.8     84.239   160.392
11329.2     83.145   159.216
11494.0     82.410   168.782
11661.2     83.305   173.725
11830.8     83.821   172.537
12002.9     83.894   170.485
12177.5     83.641   168.468
12354.6     83.214   168.067
12534.3     82.740   168.123
12716.6     81.990   168.857
12901.6     81.144   173.361
13089.2     80.997  -179.912
13279.6     81.339  -175.947
13472.8     81.709  -174.253
13668.8     82.092  -175.020
13867.6     82.154  -178.178
14069.3     81.760   178.471
14273.9     80.986   176.492
14481.5     79.890   177.890
14692.2     79.098  -176.350
14905.9     79.103  -170.887
15122.7     79.272  -169.715
15342.7     78.946  -170.012
15565.8     78.432  -168.192
15792.2     78.004  -165.014
16021.9     77.663  -160.922
16255.0     77.691  -157.164
16491.4     77.799  -155.877
16731.3     77.644  -156.396
16974.7     76.967  -156.367
17221.6     76.162  -152.723
17472.1     75.581  -148.185
17726.2     74.755  -142.956
17984.0     73.977  -132.067
18245.6     74.495  -120.550
18511.0     75.370  -115.023
18780.2     76.170  -113.056
19053.4     76.685  -115.120
19330.5     76.451  -118.935
19611.7     75.647  -120.097
19897.0     74.826  -118.301
20186.4     74.598  -116.491
20480.0     74.370  -114.680
20777.9     74.142  -112.869
21080.1     73.914  -111.058
21386.7     73.686  -109.248
21697.8     73.458  -107.437
22013.4     73.230  -105.626
22333.6     73.002  -103.815
22658.4     72.774  -102.005
22988.0     72.546  -100.194
23322.4     72.318   -98.383
23661.6     72.090   -96.573
24005.8     71.862   -94.762
24355.0     71.634   -92.951
24709.2     71.406   -91.140
25068.6     71.178   -89.330
25433.2     70.950   -87.519
25803.2     70.722   -85.708
26178.5     70.494   -83.897
26559.3     70.266   -82.087
26945.6     70.038   -80.276
27337.5     69.810   -78.465
27735.2     69.582   -76.655
28138.6     69.354   -74.844
28547.9     69.126   -73.033
28963.1     68.898   -71.222
29384.4     68.670   -69.412
29811.8     68.442   -67.601
30245.4     68.214   -65.790
30685.3     67.986   -63.979
31131.7     67.758   -62.169
31584.5     67.530   -60.358
32043.9     67.302   -58.547
32510.0     67.074   -56.737
32982.8     66.846   -54.926
33462.6     66.618   -53.115
33949.3     66.390   -51.304
34443.1     66.162   -49.494
34944.1     65.934   -47.683
35452.4     65.706   -45.872
35968.0     65.478   -44.061
36491.2     65.250   -42.251
37022.0     65.022   -40.440
37560.5     64.794   -38.629
38106.8     64.566   -36.819
38661.1     64.338   -35.008
39223.4     64.110   -33.197
39793.9     63.882   -31.386
