Freq[Hz]     dBSPL  Phase[Deg]
5.00000     31.511   137.805
5.07273     31.890   130.944
5.14651     32.269   124.084
5.22137     32.648   117.224
5.29732     33.134   110.129
5.37437     33.685   102.892
5.45254     34.236    95.654
5.53185     34.706    88.632
5.61231     35.055    81.933
5.69394     35.403    75.234
5.77676     35.702    68.597
5.86079     35.895    62.088
5.94604     36.088    55.580
6.03252     36.218    49.120
6.12027     36.242    42.738
6.20929     36.265    36.356
6.29961     36.107    29.965
6.39124     35.800    23.565
6.48420     35.492    17.166
6.57851     34.887    10.453
6.67420     34.222     3.676
6.77128     33.464    -3.268
6.86977     32.376   -10.815
6.96969     31.288   -18.362
7.07107     29.452   -28.053
7.17392     27.294   -38.666
7.27827     25.392   -54.162
7.38413     24.180   -82.906
7.49154     22.968  -111.647
7.60050     22.611  -142.300
7.71105     22.326  -173.114
7.82321     23.516   168.363
7.93701     25.495   156.424
8.05245     26.908   147.699
8.16958     27.636   142.862
8.28841     28.246   139.290
8.40896     28.608   138.383
8.53128     28.884   138.691
8.65537     28.908   142.557
8.78126     29.134   146.961
8.90899     29.977   153.005
9.03857     30.906   158.573
9.17004     32.036   163.011
9.30342     33.244   165.889
9.43874     34.567   166.413
9.57603     35.694   165.449
9.71532     36.663   163.278
9.85663     37.392   160.256
10.0000     38.043   156.955
10.1455     38.359   153.002
10.2930     38.521   149.095
10.4427     38.305   145.310
10.5946     37.856   142.352
10.7487     37.266   139.896
10.9051     36.288   139.412
11.0637     35.169   140.942
11.2246     33.843   145.471
11.3879     33.046   153.899
11.5535     32.536   164.004
11.7216     32.425   176.105
11.8921     33.169  -176.037
12.0650     33.960  -170.321
12.2405     34.544  -166.759
12.4186     34.868  -164.296
12.5992     34.981  -161.383
12.7825     34.957  -157.327
12.9684     35.055  -149.903
13.1570     35.470  -141.839
13.3484     36.388  -134.094
13.5426     37.782  -128.198
13.7395     39.379  -127.405
13.9394     40.852  -128.945
14.1421     42.051  -133.292
14.3478     43.026  -139.368
14.5565     43.793  -146.316
14.7683     44.295  -153.905
14.9831     44.490  -161.729
15.2010     44.447  -168.857
15.4221     44.313  -175.081
15.6464     43.981  -179.351
15.8740     43.649   178.587
16.1049     43.564   178.937
16.3392     43.896  -178.729
16.5768     44.709  -176.049
16.8179     45.848  -174.694
17.0626     47.168  -175.707
17.3107     48.533  -178.348
17.5625     49.689   177.867
17.8180     50.578   173.528
18.0771     51.296   169.323
18.3401     51.915   165.619
18.6068     52.386   162.882
18.8775     52.735   161.241
19.1521     53.088   160.552
19.4306     53.445   160.715
19.7133     53.979   161.505
20.0000     54.575   162.350
20.2909     55.298   162.876
20.5860     55.972   162.888
20.8855     56.625   162.302
21.1893     57.278   161.080
21.4975     57.964   159.403
21.8102     58.496   157.440
22.1274     59.003   155.389
22.4492     59.469   153.366
22.7758     60.000   151.448
23.1071     60.281   149.618
23.4432     60.908   147.765
23.7841     61.354   145.761
24.1301     61.908   143.562
24.4811     62.554   141.265
24.8372     63.039   139.007
25.1984     63.618   136.922
25.5649     64.103   135.099
25.9368     64.623   133.518
26.3141     65.287   132.104
26.6968     65.914   130.768
27.0851     66.498   129.456
27.4791     67.062   128.153
27.8788     67.518   126.866
28.2843     68.140   125.592
28.6957     68.712   124.317
29.1131     69.235   123.018
29.5365     69.809   121.665
29.9661     70.272   120.218
30.4020     70.783   118.636
30.8442     71.312   116.907
31.2929     71.833   115.057
31.7480     72.297   113.099
32.2098     72.751   111.024
32.6783     73.342   108.804
33.1536     73.822   106.478
33.6359     74.308   104.115
34.1251     74.868   101.767
34.6215     75.445    99.425
35.1250     76.041    97.029
35.6359     76.608    94.574
36.1543     77.023    92.168
36.6802     77.443    89.916
37.2137     77.870    87.789
37.7550     78.205    85.603
38.3041     78.721    83.205
38.8613     79.044    80.706
39.4265     79.370    78.240
40.0000     79.699    75.805
40.5818     79.932    73.253
41.1721     80.237    70.558
41.7710     80.507    67.874
42.3785     80.750    65.390
42.9949     80.997    63.072
43.6203     81.147    60.875
44.2548     81.401    58.808
44.8985     81.658    56.829
45.5515     82.020    54.785
46.2141     82.265    52.668
46.8863     82.399    50.632
47.5683     82.626    48.647
48.2602     82.803    46.482
48.9621     82.984    44.172
49.6743     83.135    42.037
50.3968     83.199    40.139
51.1299     83.451    38.301
51.8736     83.648    36.474
52.6281     83.750    34.692
53.3936     83.956    32.915
54.1702     84.067    31.173
54.9581     84.299    29.487
55.7575     84.476    27.719
56.5685     84.699    25.791
57.3914     84.899    23.768
58.2261     84.999    21.687
59.0730     85.128    19.589
59.9323     85.299    17.556
60.8040     85.499    15.698
61.6884     85.599    13.967
62.5857     85.699    12.165
63.4960     85.899    10.472
64.4196     86.099     9.009
65.3566     86.199     7.398
66.3073     86.493     5.646
67.2717     86.508     3.862
68.2502     86.799     1.935
69.2429     86.899     0.073
70.2501     87.082    -1.675
71.2719     87.261    -3.376
72.3086     87.422    -4.949
73.3603     87.699    -6.589
74.4274     87.975    -8.311
75.5099     88.099   -10.035
76.6083     88.242   -11.773
77.7226     88.412   -13.517
78.8531     88.667   -15.355
80.0000     88.844   -17.077
81.1636     89.036   -18.799
82.3442     89.299   -20.571
83.5419     89.403   -22.251
84.7570     89.602   -23.908
85.9899     89.876   -25.564
87.2406     90.076   -27.366
88.5096     90.234   -29.177
89.7970     90.438   -31.083
91.1031     90.826   -33.140
92.4282     91.018   -35.409
93.7726     91.299   -37.570
95.1366     91.478   -40.024
96.5204     91.559   -42.639
97.9243     91.699   -45.461
99.3486     91.870   -48.397
100.794     91.899   -50.960
102.260     91.799   -52.906
103.747     91.799   -54.333
105.256     91.928   -55.923
106.787     92.049   -57.855
108.340     92.166   -59.656
109.916     92.247   -61.515
111.515     92.428   -63.689
113.137     92.499   -65.984
114.783     92.399   -68.454
116.452     92.413   -70.761
118.146     92.409   -72.796
119.865     92.299   -74.791
121.608     92.292   -76.023
123.377     92.299   -77.719
125.171     92.299   -79.464
126.992     92.228   -81.256
128.839     92.281   -83.302
130.713     92.099   -85.410
132.615     92.037   -87.427
134.543     91.949   -89.493
136.500     91.759   -91.373
138.486     91.679   -92.985
140.500     91.577   -94.772
142.544     91.316   -96.354
144.617     91.082   -97.497
146.721     90.943   -98.516
148.855     90.728   -99.506
151.020     90.521  -100.274
153.217     90.343  -100.945
155.445     90.199  -101.742
157.706     89.982  -102.573
160.000     89.740  -103.297
162.327     89.519  -103.776
164.688     89.332  -103.580
167.084     89.170  -102.933
169.514     89.099  -102.669
171.980     88.952  -102.927
174.481     88.789  -103.229
177.019     88.585  -103.256
179.594     88.338  -102.540
182.206     88.274  -101.654
184.856     88.279  -101.247
187.545     88.113  -101.157
190.273     88.123  -101.101
193.041     88.055  -101.007
195.849     87.870  -101.135
198.697     87.731  -101.286
201.587     87.596  -100.808
204.520     87.482  -100.233
207.494     87.317   -99.981
210.512     87.207  -100.087
213.574     87.033   -99.948
216.681     86.892   -99.479
219.833     86.599   -98.471
223.030     86.483   -96.821
226.274     86.337   -95.240
229.565     86.167   -93.784
232.905     86.094   -92.591
236.292     85.950   -91.305
239.729     85.847   -89.401
243.216     85.776   -87.107
246.754     85.770   -84.582
250.343     85.895   -82.371
253.984     85.991   -80.681
257.678     86.140   -79.404
261.426     86.204   -77.943
265.229     86.366   -76.526
269.087     86.543   -75.382
273.001     86.709   -74.324
276.972     86.860   -73.583
281.000     86.983   -73.096
285.088     87.100   -72.684
289.234     87.193   -72.369
293.441     87.311   -72.132
297.709     87.372   -71.963
302.040     87.376   -71.823
306.433     87.379   -71.641
310.890     87.302   -71.394
315.412     87.241   -71.058
320.000     87.199   -70.596
324.655     87.089   -69.973
329.377     86.968   -69.193
334.168     86.842   -68.176
339.028     86.714   -66.996
343.959     86.599   -65.670
348.962     86.568   -64.231
354.038     86.499   -62.719
359.188     86.499   -61.126
364.412     86.499   -59.507
369.713     86.499   -57.972
375.090     86.499   -56.571
380.546     86.566   -55.291
386.081     86.612   -54.197
391.697     86.699   -53.252
397.394     86.655   -52.438
403.175     86.599   -51.754
409.039     86.546   -51.088
414.989     86.499   -50.368
421.025     86.370   -49.537
427.149     86.218   -48.544
433.362     86.046   -47.360
439.665     85.860   -45.915
446.060     85.758   -44.338
452.548     85.643   -42.727
459.131     85.510   -41.145
465.809     85.362   -39.689
472.584     85.232   -38.436
479.458     85.062   -37.347
486.432     84.846   -36.281
493.507     84.509   -35.056
500.686     84.074   -33.431
507.968     83.589   -31.204
515.357     83.089   -28.218
522.853     82.637   -24.340
530.458     82.218   -19.667
538.174     81.832   -14.571
546.002     81.585    -9.343
553.943     81.426    -4.021
562.001     81.299     1.401
570.175     81.199     7.029
578.469     81.212    12.892
586.883     81.342    18.673
595.419     81.590    23.995
604.080     81.920    28.595
612.866     82.261    32.319
621.780     82.555    35.336
630.824     82.747    38.097
640.000     82.803    41.085
649.309     82.899    44.669
658.753     82.972    48.924
668.335     83.218    53.489
678.056     83.587    57.485
687.919     84.020    60.456
697.925     84.418    62.364
708.077     84.720    63.557
718.376     84.920    64.623
728.825     84.999    66.027
739.426     84.999    67.926
750.181     85.082    70.100
761.093     85.196    72.094
772.163     85.296    73.560
783.394     85.357    74.582
794.789     85.243    75.575
806.349     84.999    77.002
818.078     84.708    79.149
829.977     84.443    81.805
842.050     84.231    84.424
854.298     84.011    86.599
866.724     83.687    88.464
879.330     83.199    90.824
892.120     82.590    94.732
905.097     81.993   100.755
918.262     81.649   107.553
931.618     81.526   113.448
945.169     81.410   117.821
958.917     81.073   121.357
972.864     80.470   125.440
987.015     79.722   131.243
1001.37     79.044   138.975
1015.94     78.649   147.443
1030.71     78.489   155.364
1045.71     78.399   162.638
1060.92     78.399   169.478
1076.35     78.311   175.738
1092.00     78.248  -178.438
1107.89     78.081  -172.331
1124.00     77.967  -165.238
1140.35     78.070  -157.684
1156.94     78.373  -151.230
1173.77     78.616  -146.216
1190.84     78.699  -140.698
1208.16     78.952  -133.368
1225.73     79.721  -126.494
1243.56     80.803  -123.519
1261.65     81.665  -124.343
1280.00     82.125  -126.285
1298.62     82.354  -127.626
1317.51     82.561  -128.816
1336.67     82.699  -130.895
1356.11     82.699  -133.599
1375.84     82.554  -135.994
1395.85     82.366  -137.946
1416.15     82.172  -139.611
1436.75     81.958  -140.475
1457.65     81.818  -141.243
1478.85     81.683  -143.197
1500.36     81.289  -146.168
1522.19     80.564  -148.160
1544.33     79.796  -148.066
1566.79     79.243  -147.576
1589.58     78.699  -147.982
1612.70     78.024  -148.242
1636.16     77.388  -147.818
1659.95     76.741  -146.861
1684.10     76.118  -144.560
1708.60     75.899  -142.287
1733.45     75.942  -143.256
1758.66     75.602  -146.362
1784.24     74.999  -147.992
1810.19     74.603  -148.209
1836.52     74.365  -149.122
1863.24     74.170  -150.373
1890.34     74.284  -151.640
1917.83     74.727  -153.778
1945.73     75.489  -157.772
1974.03     76.381  -165.597
2002.74     76.788  -176.587
2031.87     76.674   173.288
2061.43     76.599   165.298
2091.41     76.494   157.460
2121.83     76.304   150.176
2152.69     75.901   143.977
2184.01     75.389   140.487
2215.77     75.505   139.207
2248.00     75.828   134.074
2280.70     75.479   128.401
2313.87     75.090   125.652
2347.53     74.895   122.823
2381.68     74.611   120.508
2416.32     74.275   118.830
2451.46     74.114   118.708
2487.12     74.281   116.638
2523.30     74.084   112.159
2560.00     73.582   110.642
2597.24     73.421   109.344
2635.01     73.222   106.386
2673.34     72.711   105.200
2712.23     72.548   106.141
2751.68     72.641   103.508
2791.70     72.206   101.594
2832.31     71.999   102.011
2873.50     71.834   100.389
2915.30     71.581   100.582
2957.70     71.589   101.494
3000.72     71.601    98.516
3044.37     70.941    98.098
3088.65     70.856    99.328
3133.58     70.554    99.479
3179.16     70.499   102.143
3225.40     70.686   101.343
3272.31     70.317   100.084
3319.91     69.987   101.602
3368.20     69.707   103.321
3417.19     69.659   106.998
3466.89     70.013   107.279
3517.32     69.673   107.226
3568.48     69.580   110.616
3620.39     69.737   113.435
3673.05     70.090   115.758
3726.47     70.519   115.381
3780.67     70.498   114.263
3835.67     70.561   115.626
3891.46     70.718   116.684
3948.06     71.065   117.663
4005.49     71.481   116.140
4063.75     71.528   115.357
4122.86     71.730   115.599
4182.82     72.103   114.133
4243.66     72.263   110.815
4305.39     72.069   109.286
4368.01     71.872   108.207
4431.55     71.799   107.284
4496.01     71.524   105.544
4561.40     70.981   107.229
4627.75     71.063   110.323
4695.06     71.487   111.112
4763.35     71.599   109.766
4832.64     71.665   109.677
4902.93     71.874   108.786
4974.24     71.864   107.106
5046.60     71.799   106.543
5120.00     71.799   105.884
5194.47     71.862   104.390
5270.03     71.634   102.793
5346.68     71.411   101.858
5424.45     71.102   101.479
5503.35     70.868   102.377
5583.40     70.879   103.915
5664.61     71.062   103.416
5747.01     71.099   102.012
5830.60     71.038    99.809
5915.41     70.657    97.700
6001.45     70.277    96.622
6088.74     69.757    95.036
6177.30     69.218    95.153
6267.15     68.731    94.523
6358.31     68.001    95.448
6450.80     67.481    97.758
6544.62     66.821    99.657
6639.82     66.144   103.160
6736.40     65.791   108.025
6834.38     65.464   112.089
6933.79     65.222   118.225
7034.64     65.347   123.435
7136.96     65.584   129.371
7240.77     66.292   133.944
7346.09     67.151   134.505
7452.94     67.598   132.515
7561.35     67.761   131.042
7671.33     67.705   130.046
7782.91     67.518   129.936
7896.12     67.524   130.045
8010.97     67.473   129.135
8127.49     67.196   127.661
8245.71     66.629   127.381
8365.65     66.092   128.086
8487.33     65.740   131.462
8610.78     65.366   134.771
8736.03     65.299   138.212
8863.09     65.206   140.921
8992.01     65.099   143.668
9122.80     65.098   145.247
9255.50     64.999   147.763
9390.12     65.043   150.775
9526.70     65.222   153.786
9665.27     65.485   154.659
9805.86     65.464   153.084
9948.49     64.989   151.586
10093.2     64.151   154.388
10240.0     63.714   160.160
10388.9     63.699   163.429
10540.1     63.561   164.982
10693.4     63.135   167.520
10848.9     62.689   170.826
11006.7     62.297   174.375
11166.8     61.612   177.666
11329.2     60.548  -174.247
11494.0     60.816  -157.918
11661.2     62.471  -151.202
11830.8     63.645  -151.526
12002.9     64.446  -154.580
12177.5     64.634  -162.019
12354.6     63.625  -169.065
12534.3     61.856  -169.796
12716.6     60.047  -164.257
12901.6     58.672  -150.746
13089.2     58.872  -136.031
13279.6     59.651  -129.869
13472.8     59.935  -126.424
13668.8     59.999  -121.984
13867.6     60.103  -117.174
14069.3     60.491  -111.335
14273.9     61.354  -108.623
14481.5     61.960  -111.190
14692.2     61.687  -115.605
14905.9     60.732  -117.564
15122.7     59.494  -114.216
15342.7     58.590  -104.685
15565.8     58.797   -93.452
15792.2     59.660   -87.887
16021.9     60.455   -86.855
16255.0     61.090   -89.458
16491.4     60.827   -93.534
16731.3     59.660   -93.762
16974.7     58.726   -88.222
17221.6     58.288   -83.254
17472.1     57.923   -76.823
17726.2     57.921   -71.464
17984.0     57.409   -68.098
18245.6     56.793   -63.692
18511.0     56.210   -58.961
18780.2     55.759   -50.593
19053.4     56.170   -41.135
19330.5     56.910   -38.182
19611.7     56.738   -38.585
19897.0     56.100   -39.694
20186.4     55.949   -36.232
20480.0     55.797   -32.771
20777.9     55.645   -29.310
21080.1     55.493   -25.849
21386.7     55.341   -22.388
21697.8     55.189   -18.926
22013.4     55.038   -15.465
22333.6     54.886   -12.004
22658.4     54.734    -8.542
22988.0     54.582    -5.082
23322.4     54.430    -1.620
23661.6     54.278     1.841
24005.8     54.127     5.302
24355.0     53.975     8.763
24709.2     53.823    12.224
25068.6     53.671    15.686
25433.2     53.519    19.147
25803.2     53.367    22.608
26178.5     53.216    26.069
26559.3     53.064    29.530
26945.6     52.912    32.991
27337.5     52.760    36.453
27735.2     52.608    39.914
28138.6     52.456    43.375
28547.9     52.305    46.836
28963.1     52.153    50.297
29384.4     52.001    53.759
29811.8     51.849    57.220
30245.4     51.697    60.681
30685.3     51.545    64.142
31131.7     51.394    67.603
31584.5     51.242    71.065
32043.9     51.090    74.526
32510.0     50.938    77.987
32982.8     50.786    81.448
33462.6     50.634    84.909
33949.3     50.483    88.371
34443.1     50.331    91.832
34944.1     50.179    95.293
35452.4     50.027    98.754
35968.0     49.875   102.215
36491.2     49.723   105.677
37022.0     49.572   109.138
37560.5     49.420   112.599
38106.8     49.268   116.060
38661.1     49.116   119.521
39223.4     48.964   122.982
39793.9     48.812   126.444
