Freq[Hz]     dBSPL  Phase[Deg]
5.00000     43.037    48.328
5.07273     43.303    48.059
5.14651     43.569    47.790
5.22137     43.834    47.522
5.29732     44.088    47.245
5.37437     44.334    46.963
5.45254     44.580    46.682
5.53185     44.831    46.395
5.61231     45.087    46.100
5.69394     45.343    45.805
5.77676     45.603    45.507
5.86079     45.869    45.198
5.94604     46.136    44.890
6.03252     46.392    44.578
6.12027     46.634    44.257
6.20929     46.875    43.936
6.29961     47.121    43.608
6.39124     47.370    43.273
6.48420     47.620    42.940
6.57851     47.877    42.594
6.67420     48.136    42.247
6.77128     48.387    41.898
6.86977     48.615    41.537
6.96969     48.842    41.177
7.07107     49.104    40.807
7.17392     49.379    40.434
7.27827     49.646    40.057
7.38413     49.888    39.670
7.49154     50.130    39.284
7.60050     50.378    38.885
7.71105     50.627    38.486
7.82321     50.881    38.077
7.93701     51.137    37.665
8.05245     51.397    37.246
8.16958     51.661    36.821
8.28841     51.926    36.391
8.40896     52.197    35.951
8.53128     52.457    35.509
8.65537     52.685    35.057
8.78126     52.915    34.602
8.90899     53.149    34.136
9.03857     53.400    33.667
9.17004     53.692    33.189
9.30342     53.966    32.706
9.43874     54.212    32.215
9.57603     54.460    31.716
9.71532     54.712    31.212
9.85663     54.967    30.697
10.0000     55.224    30.180
10.1455     55.487    29.648
10.2930     55.734    29.114
10.4427     55.943    28.570
10.5946     56.192    28.018
10.7487     56.467    27.462
10.9051     56.747    26.891
11.0637     57.004    26.316
11.2246     57.225    25.733
11.3879     57.451    25.138
11.5535     57.700    24.538
11.7216     57.997    23.929
11.8921     58.242    23.309
12.0650     58.479    22.681
12.2405     58.718    22.046
12.4186     58.961    21.397
12.5992     59.206    20.741
12.7825     59.455    20.078
12.9684     59.707    19.403
13.1570     59.962    18.716
13.3484     60.221    18.021
13.5426     60.482    17.318
13.7395     60.747    16.603
13.9394     61.017    15.877
14.1421     61.289    15.140
14.3478     61.525    14.393
14.5565     61.744    13.636
14.7683     62.026    12.868
14.9831     62.313    12.089
15.2010     62.523    11.296
15.4221     62.798    10.493
15.6464     63.037     9.678
15.8740     63.298     8.852
16.1049     63.562     8.014
16.3392     63.814     7.163
16.5768     64.097     6.300
16.8179     64.319     5.425
17.0626     64.544     4.537
17.3107     64.795     3.635
17.5625     65.101     2.721
17.8180     65.335     1.793
18.0771     65.571     0.852
18.3401     65.810    -0.103
18.6068     66.052    -1.072
18.8775     66.298    -2.055
19.1521     66.607    -3.052
19.4306     66.898    -4.063
19.7133     67.153    -5.089
20.0000     67.311    -6.130
20.2909     67.589    -7.179
20.5860     67.968    -8.198
20.8855     68.265    -9.264
21.1893     68.637   -10.408
21.4975     68.897   -11.641
21.8102     69.123   -12.954
22.1274     69.344   -14.278
22.4492     69.579   -15.537
22.7758     69.809   -16.647
23.1071     69.995   -17.550
23.4432     70.276   -18.312
23.7841     70.526   -19.045
24.1301     70.803   -19.900
24.4811     70.991   -20.917
24.8372     71.351   -22.099
25.1984     71.578   -23.329
25.5649     71.832   -24.509
25.9368     72.074   -25.583
26.3141     72.225   -26.552
26.6968     72.378   -27.451
27.0851     72.567   -28.293
27.4791     72.794   -29.057
27.8788     73.051   -29.689
28.2843     73.213   -30.219
28.6957     73.377   -30.707
29.1131     73.644   -31.251
29.5365     73.828   -31.884
29.9661     74.086   -32.585
30.4020     74.321   -33.284
30.8442     74.559   -33.969
31.2929     74.788   -34.687
31.7480     74.998   -35.491
32.2098     75.362   -36.373
32.6783     75.570   -37.232
33.1536     75.761   -37.999
33.6359     75.869   -38.702
34.1251     76.199   -39.436
34.6215     76.448   -40.263
35.1250     76.649   -41.148
35.6359     76.853   -42.022
36.1543     77.061   -42.880
36.6802     77.343   -43.784
37.2137     77.585   -44.776
37.7550     77.811   -45.809
38.3041     78.039   -46.807
38.8613     78.155   -47.776
39.4265     78.404   -48.780
40.0000     78.622   -49.871
40.5818     78.850   -51.059
41.1721     79.011   -52.270
41.7710     79.201   -53.407
42.3785     79.250   -54.336
42.9949     79.440   -55.091
43.6203     79.688   -55.788
44.2548     79.801   -56.554
44.8985     79.999   -57.412
45.5515     80.258   -58.335
46.2141     80.485   -59.324
46.8863     80.699   -60.329
47.5683     80.899   -61.277
48.2602     81.099   -62.200
48.9621     81.199   -63.128
49.6743     81.369   -63.954
50.3968     81.558   -64.633
51.1299     81.751   -65.293
51.8736     81.883   -66.023
52.6281     82.050   -66.803
53.3936     82.379   -67.650
54.1702     82.667   -68.560
54.9581     82.782   -69.510
55.7575     83.102   -70.610
56.5685     83.226   -71.859
57.3914     83.556   -73.069
58.2261     83.699   -74.290
59.0730     83.997   -75.699
59.9323     84.199   -77.119
60.8040     84.421   -78.454
61.6884     84.544   -79.796
62.5857     84.709   -81.086
63.4960     84.936   -82.306
64.4196     85.076   -83.562
65.3566     85.288   -84.855
66.3073     85.516   -86.225
67.2717     85.608   -87.671
68.2502     85.799   -89.112
69.2429     85.999   -90.607
70.2501     86.216   -92.133
71.2719     86.461   -93.660
72.3086     86.644   -95.240
73.3603     86.867   -96.890
74.4274     87.075   -98.666
75.5099     87.103  -100.477
76.6083     87.299  -102.359
77.7226     87.399  -104.270
78.8531     87.499  -106.026
80.0000     87.654  -107.757
81.1636     87.799  -109.512
82.3442     87.799  -111.244
83.5419     87.899  -112.841
84.7570     88.055  -114.343
85.9899     88.099  -115.852
87.2406     88.199  -117.499
88.5096     88.372  -119.199
89.7970     88.499  -120.954
91.1031     88.582  -122.853
92.4282     88.738  -124.901
93.7726     88.799  -126.766
95.1366     88.866  -128.884
96.5204     88.919  -131.139
97.9243     88.999  -133.493
99.3486     88.899  -135.838
100.794     88.882  -137.792
102.260     88.799  -139.382
103.747     88.799  -140.649
105.256     88.757  -142.139
106.787     88.899  -143.926
108.340     88.883  -145.659
109.916     88.899  -147.388
111.515     88.905  -149.260
113.137     88.899  -151.152
114.783     88.841  -153.043
116.452     88.700  -154.825
118.146     88.599  -156.374
119.865     88.549  -157.792
121.608     88.470  -159.030
123.377     88.399  -160.282
125.171     88.293  -161.471
126.992     88.222  -162.628
128.839     88.198  -163.884
130.713     88.111  -165.139
132.615     88.081  -166.381
134.543     88.006  -167.832
136.500     87.978  -169.337
138.486     88.023  -170.810
140.500     87.889  -172.538
142.544     87.687  -174.105
144.617     87.537  -175.227
146.721     87.369  -176.134
148.855     87.198  -176.893
151.020     87.071  -177.511
153.217     86.930  -178.246
155.445     86.929  -179.203
157.706     86.708   179.746
160.000     86.457   178.866
162.327     86.310   178.454
164.688     86.140   178.768
167.084     86.048   179.511
169.514     86.027  -179.862
171.980     86.088  -179.685
174.481     86.175   179.874
177.019     86.181   179.074
179.594     86.105   178.566
182.206     86.124   178.349
184.856     86.154   178.040
187.545     86.200   177.360
190.273     86.201   176.457
193.041     86.247   175.796
195.849     86.202   175.212
198.697     86.240   174.636
201.587     86.171   174.317
204.520     86.282   173.961
207.494     86.317   173.289
210.512     86.376   172.314
213.574     86.354   171.284
216.681     86.385   170.246
219.833     86.326   169.408
223.030     86.347   168.894
226.274     86.296   168.307
229.565     86.308   167.598
232.905     86.269   166.901
236.292     86.232   166.277
239.729     86.188   165.799
243.216     86.218   165.431
246.754     86.250   165.132
250.343     86.304   164.699
253.984     86.265   164.056
257.678     86.254   163.366
261.426     86.280   162.856
265.229     86.344   162.348
269.087     86.398   161.841
273.001     86.366   161.511
276.972     86.363   161.154
281.000     86.449   160.662
285.088     86.499   160.057
289.234     86.498   159.406
293.441     86.591   158.754
297.709     86.599   158.091
302.040     86.699   157.415
306.433     86.699   156.732
310.890     86.630   156.060
315.412     86.608   155.398
320.000     86.699   154.693
324.655     86.699   154.008
329.377     86.697   153.353
334.168     86.699   152.678
339.028     86.668   152.020
343.959     86.599   151.369
348.962     86.699   150.722
354.038     86.699   150.074
359.188     86.699   149.398
364.412     86.666   148.693
369.713     86.599   147.983
375.090     86.599   147.266
380.546     86.599   146.524
386.081     86.599   145.784
391.697     86.574   145.027
397.394     86.499   144.261
403.175     86.426   143.539
409.039     86.375   142.832
414.989     86.299   142.158
421.025     86.252   141.560
427.149     86.137   141.059
433.362     86.011   140.681
439.665     85.882   140.436
446.060     85.799   140.361
452.548     85.705   140.460
459.131     85.582   140.725
465.809     85.494   141.130
472.584     85.399   141.612
479.458     85.399   142.107
486.432     85.399   142.567
493.507     85.399   142.941
500.686     85.399   143.203
507.968     85.399   143.356
515.357     85.399   143.442
522.853     85.499   143.518
530.458     85.432   143.650
538.174     85.332   143.883
546.002     85.299   144.232
553.943     85.299   144.686
562.001     85.299   145.187
570.175     85.299   145.646
578.469     85.395   145.968
586.883     85.460   146.082
595.419     85.525   145.975
604.080     85.599   145.672
612.866     85.599   145.228
621.780     85.599   144.721
630.824     85.599   144.223
640.000     85.599   143.793
649.309     85.531   143.448
658.753     85.491   143.177
668.335     85.399   142.964
678.056     85.322   142.816
687.919     85.235   142.748
697.925     85.136   142.786
708.077     85.092   142.941
718.376     84.999   143.189
728.825     84.947   143.457
739.426     84.899   143.652
750.181     84.862   143.707
761.093     84.752   143.643
772.163     84.602   143.578
783.394     84.438   143.698
794.789     84.199   144.188
806.349     83.938   145.106
818.078     83.705   146.382
829.977     83.515   147.824
842.050     83.346   149.273
854.298     83.181   150.721
866.724     83.025   152.281
879.330     82.859   154.164
892.120     82.742   156.559
905.097     82.635   159.562
918.262     82.599   162.420
931.618     82.599   164.702
945.169     82.599   166.491
958.917     82.494   168.089
972.864     82.302   169.871
987.015     82.055   172.197
1001.37     81.819   175.358
1015.94     81.699   179.260
1030.71     81.791  -176.746
1045.71     82.101  -173.595
1060.92     82.501  -172.093
1076.35     82.818  -172.224
1092.00     82.976  -173.147
1107.89     82.956  -173.892
1124.00     82.899  -173.951
1140.35     82.943  -173.689
1156.94     83.075  -173.946
1173.77     83.199  -175.072
1190.84     83.261  -176.630
1208.16     83.199  -178.018
1225.73     83.199  -179.225
1243.56     83.248   179.123
1261.65     83.333   176.508
1280.00     83.309   173.158
1298.62     83.160   169.827
1317.51     82.957   166.976
1336.67     82.824   164.270
1356.11     82.799   160.891
1375.84     82.692   156.423
1395.85     82.503   151.223
1416.15     82.174   146.125
1436.75     81.704   142.091
1457.65     81.104   139.484
1478.85     80.556   138.741
1500.36     80.367   138.514
1522.19     80.399   135.977
1544.33     80.250   130.606
1566.79     79.660   124.615
1589.58     78.799   119.677
1612.70     77.864   115.274
1636.16     76.790   110.857
1659.95     75.482   107.467
1684.10     74.038   105.308
1708.60     72.433   103.089
1733.45     70.258   102.453
1758.66     67.490   109.825
1784.24     65.685   124.445
1810.19     64.891   132.058
1836.52     62.357   140.305
1863.24     60.187   174.174
1890.34     62.463  -159.787
1917.83     63.916  -150.151
1945.73     65.659  -137.747
1974.03     67.685  -131.770
2002.74     69.295  -126.073
2031.87     71.850  -121.268
2061.43     74.025  -127.184
2091.41     74.660  -136.022
2121.83     74.637  -137.923
2152.69     75.325  -136.936
2184.01     76.146  -140.151
2215.77     76.453  -143.315
2248.00     76.854  -144.420
2280.70     77.300  -146.745
2313.87     77.528  -148.579
2347.53     77.910  -149.924
2381.68     78.256  -153.362
2416.32     78.081  -156.648
2451.46     77.863  -155.822
2487.12     78.214  -154.095
2523.30     78.676  -154.624
2560.00     78.964  -156.840
2597.24     78.913  -159.033
2635.01     78.789  -158.291
2673.34     79.198  -155.544
2712.23     80.013  -156.768
2751.68     80.243  -159.248
2791.70     80.622  -159.653
2832.31     81.005  -161.095
2873.50     81.444  -162.302
2915.30     81.907  -164.059
2957.70     82.523  -166.563
3000.72     82.985  -170.812
3044.37     83.195  -175.270
3088.65     83.264  -177.787
3133.58     83.699   179.543
3179.16     84.112   174.878
3225.40     84.274   169.267
3272.31     84.363   163.871
3319.91     84.299   158.781
3368.20     84.302   153.316
3417.19     83.891   146.886
3466.89     83.233   143.020
3517.32     82.628   141.237
3568.48     82.223   140.568
3620.39     81.979   139.414
3673.05     81.765   138.457
3726.47     81.516   137.991
3780.67     81.399   137.954
3835.67     81.399   137.941
3891.46     81.496   137.746
3948.06     81.545   136.963
4005.49     81.581   137.020
4063.75     81.973   137.569
4122.86     82.500   136.404
4182.82     82.924   134.384
4243.66     83.517   132.198
4305.39     84.143   128.309
4368.01     84.594   123.496
4431.55     85.053   118.058
4496.01     85.383   111.513
4561.40     85.630   104.586
4627.75     85.773    96.465
4695.06     85.458    88.314
4763.35     84.947    81.627
4832.64     84.358    76.470
4902.93     83.802    72.553
4974.24     83.233    69.580
5046.60     82.792    67.976
5120.00     82.568    65.974
5194.47     82.179    63.956
5270.03     82.056    64.353
5346.68     82.199    62.440
5424.45     82.151    61.016
5503.35     82.522    60.026
5583.40     82.924    55.933
5664.61     83.076    51.749
5747.01     83.339    47.306
5830.60     83.499    41.718
5915.41     83.499    35.917
6001.45     83.499    29.680
6088.74     83.364    22.286
6177.30     82.867    15.671
6267.15     82.324     9.970
6358.31     81.483     5.459
6450.80     80.753     4.434
6544.62     80.242     3.203
6639.82     79.804     4.285
6736.40     79.782     5.896
6834.38     80.228     6.474
6933.79     80.789     4.208
7034.64     81.324    -0.319
7136.96     81.527    -5.952
7240.77     81.687   -11.611
7346.09     81.611   -17.719
7452.94     81.460   -23.117
7561.35     81.227   -28.693
7671.33     80.763   -33.152
7782.91     80.288   -35.944
7896.12     79.829   -36.706
8010.97     79.795   -35.826
8127.49     80.208   -36.109
8245.71     81.037   -38.454
8365.65     81.684   -44.172
8487.33     82.198   -51.468
8610.78     82.399   -59.833
8736.03     82.382   -67.769
8863.09     82.163   -74.952
8992.01     81.975   -81.080
9122.80     81.734   -86.766
9255.50     81.608   -92.118
9390.12     81.385   -97.285
9526.70     81.262  -102.409
9665.27     81.199  -107.355
9805.86     81.199  -113.193
9948.49     81.099  -119.806
10093.2     80.832  -126.998
10240.0     80.343  -133.786
10388.9     79.724  -139.089
10540.1     79.252  -142.881
10693.4     78.972  -146.413
10848.9     78.804  -151.240
11006.7     78.482  -156.711
11166.8     78.085  -161.775
11329.2     77.689  -166.625
11494.0     77.353  -171.192
11661.2     76.962  -176.013
11830.8     76.513  -179.918
12002.9     76.195   176.877
12177.5     76.004   173.157
12354.6     75.786   168.769
12534.3     75.511   164.804
12716.6     75.399   161.208
12901.6     75.399   156.626
13089.2     75.444   151.084
13279.6     75.499   144.806
13472.8     75.586   137.526
13668.8     75.675   128.899
13867.6     75.532   118.886
14069.3     75.189   107.982
14273.9     74.527    96.495
14481.5     73.372    85.833
14692.2     71.841    78.215
14905.9     70.262    74.632
15122.7     68.962    74.541
15342.7     68.263    75.536
15565.8     68.018    75.414
15792.2     67.934    74.572
16021.9     67.899    73.429
16255.0     68.028    71.077
16491.4     68.191    68.217
16731.3     68.588    65.546
16974.7     69.198    60.015
17221.6     69.385    51.644
17472.1     69.190    45.345
17726.2     69.281    41.599
17984.0     69.632    36.331
18245.6     69.962    28.884
18511.0     70.237    20.511
18780.2     70.299    12.165
19053.4     70.380     3.694
19330.5     70.574    -5.666
19611.7     70.523   -16.486
19897.0     70.270   -25.437
20186.4     70.008   -30.652
20480.0     69.745   -35.867
20777.9     69.483   -41.081
21080.1     69.220   -46.295
21386.7     68.958   -51.509
21697.8     68.695   -56.723
22013.4     68.432   -61.938
22333.6     68.170   -67.152
22658.4     67.907   -72.367
22988.0     67.645   -77.580
23322.4     67.382   -82.794
23661.6     67.119   -88.008
24005.8     66.857   -93.223
24355.0     66.594   -98.436
24709.2     66.332  -103.651
25068.6     66.069  -108.865
25433.2     65.807  -114.080
25803.2     65.544  -119.293
26178.5     65.281  -124.508
26559.3     65.019  -129.722
26945.6     64.756  -134.936
27337.5     64.494  -140.150
27735.2     64.231  -145.363
28138.6     63.968  -150.579
28547.9     63.706  -155.792
28963.1     63.443  -161.007
29384.4     63.181  -166.221
29811.8     62.918  -171.435
30245.4     62.656  -176.649
30685.3     62.393   178.136
31131.7     62.130   172.922
31584.5     61.868   167.708
32043.9     61.605   162.494
32510.0     61.343   157.280
32982.8     61.080   152.066
33462.6     60.818   146.851
33949.3     60.555   141.637
34443.1     60.292   136.423
34944.1     60.030   131.209
35452.4     59.767   125.995
35968.0     59.505   120.781
36491.2     59.242   115.566
37022.0     58.979   110.352
37560.5     58.717   105.138
38106.8     58.454    99.924
38661.1     58.192    94.710
39223.4     57.929    89.495
39793.9     57.667    84.281
