Freq[Hz]     dBSPL  Phase[Deg]
5.00000     41.058    21.262
5.07273     41.331    21.042
5.14651     41.605    20.823
5.22137     41.879    20.606
5.29732     42.140    20.380
5.37437     42.395    20.150
5.45254     42.649    19.922
5.53185     42.907    19.689
5.61231     43.171    19.448
5.69394     43.436    19.209
5.77676     43.703    18.966
5.86079     43.978    18.715
5.94604     44.252    18.465
6.03252     44.517    18.211
6.12027     44.766    17.949
6.20929     45.016    17.689
6.29961     45.270    17.422
6.39124     45.527    17.149
6.48420     45.785    16.878
6.57851     46.050    16.597
6.67420     46.317    16.314
6.77128     46.577    16.031
6.86977     46.812    15.736
6.96969     47.047    15.444
7.07107     47.317    15.143
7.17392     47.601    14.839
7.27827     47.875    14.533
7.38413     48.125    14.218
7.49154     48.375    13.905
7.60050     48.632    13.579
7.71105     48.889    13.254
7.82321     49.151    12.922
7.93701     49.415    12.586
8.05245     49.683    12.246
8.16958     49.954    11.900
8.28841     50.228    11.550
8.40896     50.507    11.193
8.53128     50.775    10.833
8.65537     51.011    10.465
8.78126     51.249    10.095
8.90899     51.491     9.716
9.03857     51.750     9.335
9.17004     52.050     8.945
9.30342     52.332     8.552
9.43874     52.586     8.152
9.57603     52.842     7.747
9.71532     53.102     7.337
9.85663     53.365     6.918
10.0000     53.630     6.498
10.1455     53.901     6.065
10.2930     54.156     5.630
10.4427     54.373     5.187
10.5946     54.631     4.738
10.7487     54.913     4.286
10.9051     55.201     3.822
11.0637     55.466     3.354
11.2246     55.696     2.879
11.3879     55.929     2.395
11.5535     56.186     1.907
11.7216     56.492     1.412
11.8921     56.745     0.907
12.0650     56.989     0.397
12.2405     57.236    -0.120
12.4186     57.487    -0.648
12.5992     57.741    -1.182
12.7825     57.997    -1.721
12.9684     58.258    -2.271
13.1570     58.521    -2.829
13.3484     58.788    -3.395
13.5426     59.057    -3.967
13.7395     59.330    -4.548
13.9394     59.608    -5.140
14.1421     59.888    -5.739
14.3478     60.132    -6.346
14.5565     60.359    -6.962
14.7683     60.650    -7.587
14.9831     60.944    -8.221
15.2010     61.162    -8.866
15.4221     61.445    -9.520
15.6464     61.693   -10.183
15.8740     61.962   -10.855
16.1049     62.233   -11.537
16.3392     62.494   -12.229
16.5768     62.785   -12.931
16.8179     63.015   -13.643
17.0626     63.247   -14.366
17.3107     63.507   -15.100
17.5625     63.821   -15.844
17.8180     64.062   -16.598
18.0771     64.307   -17.364
18.3401     64.554   -18.141
18.6068     64.804   -18.929
18.8775     65.058   -19.729
19.1521     65.375   -20.540
19.4306     65.674   -21.364
19.7133     65.937   -22.198
20.0000     66.103   -23.045
20.2909     66.389   -23.898
20.5860     66.790   -24.695
20.8855     67.162   -25.527
21.1893     67.451   -26.441
21.4975     67.697   -27.451
21.8102     67.979   -28.546
22.1274     68.244   -29.658
22.4492     68.479   -30.711
22.7758     68.709   -31.620
23.1071     68.895   -32.328
23.4432     69.176   -32.902
23.7841     69.426   -33.451
24.1301     69.703   -34.130
24.4811     69.891   -34.978
24.8372     70.251   -35.994
25.1984     70.559   -37.066
25.5649     70.751   -38.094
25.9368     70.974   -39.021
26.3141     71.125   -39.849
26.6968     71.278   -40.613
27.0851     71.467   -41.326
27.4791     71.694   -41.966
27.8788     71.951   -42.480
28.2843     72.113   -42.897
28.6957     72.277   -43.278
29.1131     72.494   -43.721
29.5365     72.694   -44.258
29.9661     72.986   -44.867
30.4020     73.221   -45.480
30.8442     73.437   -46.084
31.2929     73.633   -46.727
31.7480     73.898   -47.460
32.2098     74.262   -48.275
32.6783     74.394   -49.073
33.1536     74.661   -49.784
33.6359     74.769   -50.436
34.1251     75.081   -51.122
34.6215     75.302   -51.907
35.1250     75.458   -52.754
35.6359     75.722   -53.593
36.1543     75.933   -54.423
36.6802     76.159   -55.301
37.2137     76.423   -56.273
37.7550     76.701   -57.288
38.3041     76.839   -58.273
38.8613     77.044   -59.234
39.4265     77.204   -60.233
40.0000     77.499   -61.323
40.5818     77.650   -62.514
41.1721     77.868   -63.732
41.7710     78.001   -64.879
42.3785     78.050   -65.823
42.9949     78.299   -66.596
43.6203     78.488   -67.314
44.2548     78.601   -68.106
44.8985     78.859   -68.992
45.5515     79.120   -69.947
46.2141     79.285   -70.972
46.8863     79.499   -72.015
47.5683     79.699   -73.006
48.2602     79.899   -73.975
48.9621     79.999   -74.953
49.6743     80.169   -75.831
50.3968     80.358   -76.566
51.1299     80.551   -77.286
51.8736     80.683   -78.079
52.6281     80.850   -78.925
53.3936     81.179   -79.841
54.1702     81.467   -80.824
54.9581     81.582   -81.850
55.7575     81.902   -83.029
56.5685     82.026   -84.360
57.3914     82.356   -85.655
58.2261     82.499   -86.965
59.0730     82.797   -88.467
59.9323     82.999   -89.982
60.8040     83.221   -91.416
61.6884     83.344   -92.860
62.5857     83.509   -94.254
63.4960     83.736   -95.584
64.4196     83.876   -96.951
65.3566     84.088   -98.360
66.3073     84.322   -99.848
67.2717     84.477  -101.416
68.2502     84.662  -102.983
69.2429     84.807  -104.606
70.2501     85.099  -106.265
71.2719     85.299  -107.928
72.3086     85.444  -109.648
73.3603     85.667  -111.441
74.4274     85.899  -113.364
75.5099     85.922  -115.325
76.6083     86.118  -117.362
77.7226     86.299  -119.430
78.8531     86.331  -121.349
80.0000     86.499  -123.246
81.1636     86.599  -125.172
82.3442     86.699  -127.079
83.5419     86.799  -128.854
84.7570     86.955  -130.540
85.9899     86.999  -132.236
87.2406     87.099  -134.076
88.5096     87.272  -135.974
89.7970     87.399  -137.931
91.1031     87.482  -140.038
92.4282     87.699  -142.299
93.7726     87.699  -144.382
95.1366     87.766  -146.725
96.5204     87.819  -149.210
97.9243     87.899  -151.801
99.3486     87.799  -154.389
100.794     87.782  -156.594
102.260     87.799  -158.442
103.747     87.799  -159.976
105.256     87.757  -161.739
106.787     87.899  -163.810
108.340     87.983  -165.836
109.916     87.899  -167.868
111.515     87.956  -170.053
113.137     87.899  -172.271
114.783     87.885  -174.499
116.452     87.800  -176.633
118.146     87.699  -178.548
119.865     87.649   179.651
121.608     87.663   178.015
123.377     87.499   176.345
125.171     87.413   174.718
126.992     87.399   173.101
128.839     87.380   171.363
130.713     87.218   169.601
132.615     87.194   167.827
134.543     87.189   165.804
136.500     87.158   163.694
138.486     87.203   161.654
140.500     87.056   159.287
142.544     86.853   157.005
144.617     86.677   155.216
146.721     86.485   153.636
148.855     86.265   152.144
151.020     86.104   150.800
153.217     85.930   149.355
155.445     85.829   147.712
157.706     85.608   146.006
160.000     85.271   144.456
162.327     85.010   143.417
164.688     84.740   143.193
167.084     84.648   143.395
169.514     84.527   143.482
171.980     84.459   143.157
174.481     84.492   142.277
177.019     84.410   141.057
179.594     84.262   140.112
182.206     84.174   139.438
184.856     84.168   138.678
187.545     84.072   137.578
190.273     84.026   136.225
193.041     83.990   135.112
195.849     83.890   134.075
198.697     83.740   133.020
201.587     83.633   132.225
204.520     83.582   131.404
207.494     83.542   130.284
210.512     83.476   128.859
213.574     83.329   127.417
216.681     83.210   126.035
219.833     83.026   124.892
223.030     82.858   124.131
226.274     82.674   123.390
229.565     82.508   122.630
232.905     82.335   121.992
236.292     82.121   121.537
239.729     81.948   121.351
243.216     81.862   121.369
246.754     81.730   121.528
250.343     81.654   121.615
253.984     81.625   121.488
257.678     81.554   121.266
261.426     81.543   121.157
265.229     81.564   120.931
269.087     81.607   120.567
273.001     81.566   120.248
276.972     81.563   119.777
281.000     81.567   119.059
285.088     81.599   118.135
289.234     81.598   117.125
293.441     81.599   116.113
297.709     81.554   115.134
302.040     81.449   114.228
306.433     81.332   113.431
310.890     81.168   112.814
315.412     81.033   112.398
320.000     80.922   112.138
324.655     80.841   112.072
329.377     80.736   112.175
334.168     80.664   112.408
339.028     80.599   112.670
343.959     80.606   112.871
348.962     80.707   112.942
354.038     80.799   112.831
359.188     80.863   112.506
364.412     80.899   111.949
369.713     80.999   111.205
375.090     80.999   110.319
380.546     81.059   109.322
386.081     81.099   108.307
391.697     81.024   107.305
397.394     80.955   106.379
403.175     80.872   105.622
409.039     80.799   105.014
414.989     80.699   104.568
421.025     80.675   104.290
427.149     80.599   104.148
433.362     80.528   104.103
439.665     80.499   104.116
446.060     80.552   104.148
452.548     80.599   104.165
459.131     80.599   104.138
465.809     80.673   104.036
472.584     80.721   103.839
479.458     80.846   103.527
486.432     80.962   103.077
493.507     81.029   102.474
500.686     81.099   101.721
507.968     81.144   100.864
515.357     81.199    99.953
522.853     81.199    99.028
530.458     81.199    98.158
538.174     81.109    97.424
546.002     81.075    96.853
553.943     80.999    96.420
562.001     80.999    96.074
570.175     80.999    95.721
578.469     81.012    95.255
586.883     81.099    94.604
595.419     81.099    93.754
604.080     81.099    92.728
612.866     81.099    91.621
621.780     81.019    90.560
630.824     80.947    89.659
640.000     80.871    88.986
649.309     80.799    88.494
658.753     80.799    88.039
668.335     80.799    87.430
678.056     80.849    86.536
687.919     80.899    85.274
697.925     80.899    83.702
708.077     80.899    81.995
718.376     80.810    80.308
728.825     80.661    78.794
739.426     80.506    77.523
750.181     80.366    76.449
761.093     80.209    75.445
772.163     80.039    74.405
783.394     79.870    73.280
794.789     79.608    72.147
806.349     79.260    71.243
818.078     78.866    70.783
829.977     78.437    70.926
842.050     78.034    71.709
854.298     77.696    72.994
866.724     77.458    74.486
879.330     77.322    75.872
892.120     77.282    76.962
905.097     77.185    77.792
918.262     77.060    77.914
931.618     76.815    77.429
945.169     76.367    77.057
958.917     75.754    77.707
972.864     75.099    79.995
987.015     74.573    83.700
1001.37     74.272    87.829
1015.94     74.114    91.512
1030.71     73.979    94.972
1045.71     73.932    98.955
1060.92     74.180   103.045
1076.35     74.706   105.445
1092.00     75.278   105.018
1107.89     75.597   102.315
1124.00     75.567    99.138
1140.35     75.319    97.240
1156.94     75.116    96.964
1173.77     75.182    96.810
1190.84     75.403    94.941
1208.16     75.478    91.200
1225.73     75.197    86.992
1243.56     74.703    84.077
1261.65     74.297    83.042
1280.00     74.199    82.453
1298.62     74.199    80.444
1317.51     74.170    76.837
1336.67     73.912    73.185
1356.11     73.597    70.844
1375.84     73.544    68.862
1395.85     73.730    64.769
1416.15     73.720    58.157
1436.75     73.213    51.833
1457.65     72.352    48.669
1478.85     71.709    49.126
1500.36     71.689    49.160
1522.19     71.764    45.555
1544.33     71.343    40.663
1566.79     70.651    38.398
1589.58     70.312    37.689
1612.70     70.159    33.667
1636.16     69.350    26.532
1659.95     67.326    24.182
1684.10     65.096    36.362
1708.60     65.456    54.468
1733.45     67.317    60.951
1758.66     68.720    58.127
1784.24     69.476    51.298
1810.19     69.367    42.341
1836.52     67.958    37.579
1863.24     66.540    47.741
1890.34     68.016    61.722
1917.83     70.324    60.952
1945.73     71.639    52.828
1974.03     72.454    43.914
2002.74     72.936    32.320
2031.87     72.474    18.292
2061.43     70.736     9.316
2091.41     68.941    13.933
2121.83     69.411    21.078
2152.69     70.388    16.593
2184.01     70.202     9.705
2215.77     69.854     7.781
2248.00     69.966     3.950
2280.70     69.339    -2.055
2313.87     68.446    -0.454
2347.53     68.994     2.318
2381.68     69.648    -2.238
2416.32     69.757    -6.491
2451.46     70.095   -10.701
2487.12     69.949   -18.429
2523.30     69.024   -21.221
2560.00     69.116   -19.692
2597.24     69.825   -24.627
2635.01     70.175   -31.728
2673.34     70.462   -39.916
2712.23     70.285   -49.337
2751.68     69.613   -56.744
2791.70     69.024   -61.649
2832.31     68.182   -66.212
2873.50     67.862   -64.773
2915.30     68.212   -70.912
2957.70     67.486   -77.424
3000.72     66.685   -78.602
3044.37     66.796   -74.767
3088.65     68.032   -76.147
3133.58     69.241   -84.989
3179.16     69.359   -97.106
3225.40     68.955  -105.427
3272.31     68.791  -107.810
3319.91     70.128  -110.784
3368.20     71.510  -124.652
3417.19     71.201  -142.914
3466.89     70.017  -152.057
3517.32     69.784  -153.643
3568.48     70.865  -159.880
3620.39     71.556  -173.800
3673.05     71.296   172.352
3726.47     70.906   165.179
3780.67     71.684   156.073
3835.67     71.954   138.011
3891.46     70.680   121.582
3948.06     68.781   116.290
4005.49     68.655   117.436
4063.75     69.048   107.505
4122.86     68.148   100.852
4182.82     67.818    97.747
4243.66     68.409    95.498
4305.39     68.664    83.573
4368.01     67.941    76.348
4431.55     67.816    73.678
4496.01     68.732    67.377
4561.40     68.846    55.479
4627.75     68.522    48.847
4695.06     69.342    41.955
4763.35     69.958    26.481
4832.64     69.423    12.077
4902.93     68.869     2.132
4974.24     68.436    -8.513
5046.60     67.954   -16.726
5120.00     67.984   -23.155
5194.47     68.658   -33.169
5270.03     68.834   -49.004
5346.68     68.313   -63.197
5424.45     67.906   -74.504
5503.35     67.588   -89.314
5583.40     66.348  -103.149
5664.61     65.061  -108.386
5747.01     64.279  -115.178
5830.60     63.853  -115.569
5915.41     64.648  -118.966
6001.45     65.388  -126.434
6088.74     66.255  -139.170
6177.30     66.707  -154.638
6267.15     66.627  -171.451
6358.31     66.027   172.934
6450.80     65.162   160.023
6544.62     64.523   149.222
6639.82     63.896   137.172
6736.40     62.791   128.547
6834.38     62.744   121.889
6933.79     62.718   114.952
7034.64     63.424   106.980
7136.96     63.929    93.469
7240.77     64.437    79.772
7346.09     64.481    63.819
7452.94     64.493    49.542
7561.35     64.180    33.795
7671.33     63.818    21.566
7782.91     63.545     8.335
7896.12     63.260    -2.171
8010.97     63.336   -15.057
8127.49     63.178   -27.171
8245.71     63.296   -40.627
8365.65     63.199   -54.741
8487.33     63.137   -69.824
8610.78     63.244   -85.499
8736.03     63.149  -106.168
8863.09     62.484  -125.005
8992.01     61.953  -143.417
9122.80     61.148  -163.123
9255.50     59.974   176.972
9390.12     58.900   161.188
9526.70     57.719   145.526
9665.27     56.911   135.102
9805.86     56.980   126.899
9948.49     57.639   112.398
10093.2     58.263    94.945
10240.0     58.010    77.656
10388.9     57.718    63.402
10540.1     57.479    50.814
10693.4     57.022    38.876
10848.9     57.099    26.200
11006.7     56.754    12.483
11166.8     55.716     0.395
11329.2     55.365    -7.888
11494.0     56.344   -18.867
11661.2     57.409   -40.291
11830.8     57.494   -70.430
12002.9     56.494  -100.534
12177.5     55.178  -124.330
12354.6     53.924  -143.333
12534.3     53.465  -159.363
12716.6     54.149   179.100
12901.6     54.355   151.208
13089.2     53.416   122.281
13279.6     51.819    91.749
13472.8     49.187    66.829
13668.8     45.820    56.075
13867.6     44.313    47.057
14069.3     43.702    37.465
14273.9     44.390    21.568
14481.5     45.544    -5.120
14692.2     45.648   -37.545
14905.9     44.636   -68.859
15122.7     43.501   -82.897
15342.7     43.464   -97.596
15565.8     44.871  -118.364
15792.2     45.335  -145.460
16021.9     44.708  -169.815
16255.0     45.104   162.677
16491.4     45.647   132.397
16731.3     46.296    99.996
16974.7     46.603    66.047
17221.6     46.302    30.237
17472.1     45.036    -1.543
17726.2     43.937   -23.432
17984.0     43.613   -43.732
18245.6     43.975   -68.506
18511.0     44.312  -105.607
18780.2     42.602  -150.570
19053.4     40.216   179.442
19330.5     39.067   153.747
19611.7     39.127   125.666
19897.0     39.282    84.907
20186.4     38.869    61.860
20480.0     38.456    38.814
20777.9     38.043    15.771
21080.1     37.631    -7.275
21386.7     37.218   -30.320
21697.8     36.805   -53.362
22013.4     36.392   -76.406
22333.6     35.979   -99.451
22658.4     35.566  -122.498
22988.0     35.153  -145.541
23322.4     34.740  -168.582
23661.6     34.327   168.371
24005.8     33.914   145.330
24355.0     33.501   122.287
24709.2     33.089    99.239
25068.6     32.676    76.195
25433.2     32.263    53.149
25803.2     31.850    30.109
26178.5     31.437     7.064
26559.3     31.024   -15.979
26945.6     30.611   -39.024
27337.5     30.198   -62.070
27735.2     29.785   -85.110
28138.6     29.372  -108.155
28547.9     28.959  -131.199
28963.1     28.546  -154.246
29384.4     28.134  -177.288
29811.8     27.721   159.667
30245.4     27.308   136.622
30685.3     26.895   113.576
31131.7     26.482    90.535
31584.5     26.069    67.490
32043.9     25.656    44.446
32510.0     25.243    21.402
32982.8     24.830    -1.645
33462.6     24.417   -24.686
33949.3     24.004   -47.733
34443.1     23.592   -70.777
34944.1     23.179   -93.820
35452.4     22.766  -116.863
35968.0     22.353  -139.910
36491.2     21.940  -162.953
37022.0     21.527   174.004
37560.5     21.114   150.960
38106.8     20.701   127.914
38661.1     20.288   104.871
39223.4     19.875    81.826
39793.9     19.462    58.781
