Freq[Hz]     dBSPL  Phase[Deg]
5.00000     42.872    44.980
5.07273     43.138    44.717
5.14651     43.405    44.454
5.22137     43.671    44.193
5.29732     43.925    43.923
5.37437     44.172    43.647
5.45254     44.419    43.373
5.53185     44.670    43.093
5.61231     44.927    42.805
5.69394     45.184    42.518
5.77676     45.444    42.226
5.86079     45.711    41.925
5.94604     45.978    41.625
6.03252     46.236    41.320
6.12027     46.478    41.007
6.20929     46.719    40.694
6.29961     46.966    40.374
6.39124     47.216    40.047
6.48420     47.467    39.722
6.57851     47.725    39.385
6.67420     47.984    39.046
6.77128     48.236    38.705
6.86977     48.464    38.353
6.96969     48.692    38.002
7.07107     48.954    37.641
7.17392     49.231    37.277
7.27827     49.498    36.909
7.38413     49.741    36.531
7.49154     49.983    36.155
7.60050     50.232    35.765
7.71105     50.482    35.376
7.82321     50.737    34.977
7.93701     50.994    34.574
8.05245     51.254    34.166
8.16958     51.518    33.751
8.28841     51.785    33.331
8.40896     52.056    32.903
8.53128     52.317    32.471
8.65537     52.545    32.030
8.78126     52.776    31.586
8.90899     53.010    31.131
9.03857     53.262    30.674
9.17004     53.555    30.207
9.30342     53.830    29.735
9.43874     54.076    29.256
9.57603     54.325    28.770
9.71532     54.577    28.278
9.85663     54.833    27.775
10.0000     55.091    27.271
10.1455     55.355    26.752
10.2930     55.602    26.231
10.4427     55.812    25.700
10.5946     56.062    25.161
10.7487     56.337    24.618
10.9051     56.618    24.062
11.0637     56.875    23.501
11.2246     57.098    22.931
11.3879     57.324    22.351
11.5535     57.573    21.766
11.7216     57.871    21.172
11.8921     58.117    20.566
12.0650     58.354    19.954
12.2405     58.594    19.334
12.4186     58.838    18.701
12.5992     59.084    18.061
12.7825     59.333    17.413
12.9684     59.586    16.755
13.1570     59.842    16.085
13.3484     60.101    15.407
13.5426     60.364    14.720
13.7395     60.629    14.023
13.9394     60.899    13.314
14.1421     61.172    12.595
14.3478     61.409    11.866
14.5565     61.628    11.128
14.7683     61.912    10.378
14.9831     62.199     9.617
15.2010     62.410     8.844
15.4221     62.685     8.060
15.6464     62.925     7.265
15.8740     63.187     6.459
16.1049     63.451     5.641
16.3392     63.704     4.811
16.5768     63.988     3.969
16.8179     64.210     3.115
17.0626     64.435     2.248
17.3107     64.688     1.368
17.5625     64.995     0.476
17.8180     65.229    -0.429
18.0771     65.465    -1.347
18.3401     65.705    -2.279
18.6068     65.948    -3.225
18.8775     66.194    -4.184
19.1521     66.505    -5.157
19.4306     66.796    -6.144
19.7133     67.052    -7.145
20.0000     67.210    -8.161
20.2909     67.489    -9.184
20.5860     67.868   -10.171
20.8855     68.162   -11.202
21.1893     68.451   -12.314
21.4975     68.767   -13.515
21.8102     69.023   -14.799
22.1274     69.244   -16.094
22.4492     69.479   -17.326
22.7758     69.709   -18.409
23.1071     69.885   -19.287
23.4432     70.078   -20.026
23.7841     70.421   -20.737
24.1301     70.703   -21.571
24.4811     70.891   -22.570
24.8372     71.251   -23.733
25.1984     71.478   -24.947
25.5649     71.651   -26.112
25.9368     71.874   -27.172
26.3141     72.025   -28.129
26.6968     72.178   -29.016
27.0851     72.463   -29.849
27.4791     72.594   -30.603
27.8788     72.851   -31.228
28.2843     73.013   -31.751
28.6957     73.177   -32.234
29.1131     73.444   -32.774
29.5365     73.694   -33.404
29.9661     73.986   -34.103
30.4020     74.219   -34.801
30.8442     74.359   -35.487
31.2929     74.633   -36.206
31.7480     74.898   -37.012
32.2098     75.167   -37.897
32.6783     75.394   -38.760
33.1536     75.607   -39.533
33.6359     75.753   -40.242
34.1251     75.999   -40.983
34.6215     76.302   -41.819
35.1250     76.458   -42.712
35.6359     76.722   -43.595
36.1543     76.933   -44.465
36.6802     77.159   -45.380
37.2137     77.423   -46.384
37.7550     77.611   -47.430
38.3041     77.839   -48.442
38.8613     78.044   -49.426
39.4265     78.204   -50.445
40.0000     78.499   -51.552
40.5818     78.650   -52.757
41.1721     78.868   -53.986
41.7710     79.001   -55.141
42.3785     79.050   -56.089
42.9949     79.299   -56.864
43.6203     79.488   -57.581
44.2548     79.601   -58.369
44.8985     79.899   -59.248
45.5515     80.120   -60.194
46.2141     80.285   -61.206
46.8863     80.499   -62.234
47.5683     80.699   -63.207
48.2602     80.899   -64.155
48.9621     80.999   -65.108
49.6743     81.169   -65.961
50.3968     81.358   -66.667
51.1299     81.551   -67.354
51.8736     81.748   -68.113
52.6281     81.950   -68.922
53.3936     82.179   -69.798
54.1702     82.467   -70.738
54.9581     82.675   -71.719
55.7575     82.902   -72.850
56.5685     83.126   -74.131
57.3914     83.356   -75.374
58.2261     83.599   -76.628
59.0730     83.828   -78.071
59.9323     83.999   -79.526
60.8040     84.221   -80.896
61.6884     84.399   -82.274
62.5857     84.599   -83.599
63.4960     84.836   -84.857
64.4196     84.967   -86.150
65.3566     85.142   -87.482
66.3073     85.416   -88.890
67.2717     85.508   -90.377
68.2502     85.699   -91.858
69.2429     85.899   -93.394
70.2501     86.116   -94.962
71.2719     86.361   -96.531
72.3086     86.499   -98.155
73.3603     86.767   -99.848
74.4274     86.975  -101.669
75.5099     87.003  -103.525
76.6083     87.199  -105.453
77.7226     87.299  -107.410
78.8531     87.399  -109.214
80.0000     87.554  -110.994
81.1636     87.699  -112.798
82.3442     87.799  -114.581
83.5419     87.812  -116.228
84.7570     87.955  -117.782
85.9899     88.099  -119.344
87.2406     88.122  -121.045
88.5096     88.303  -122.799
89.7970     88.420  -124.609
91.1031     88.582  -126.565
92.4282     88.699  -128.671
93.7726     88.799  -130.594
95.1366     88.866  -132.772
96.5204     88.919  -135.088
97.9243     88.999  -137.504
99.3486     88.899  -139.913
100.794     88.882  -141.931
102.260     88.899  -143.588
103.747     88.799  -144.923
105.256     88.799  -146.482
106.787     88.939  -148.341
108.340     88.983  -150.147
109.916     88.999  -151.951
111.515     89.005  -153.899
113.137     88.999  -155.871
114.783     88.985  -157.843
116.452     88.899  -159.710
118.146     88.737  -161.346
119.865     88.649  -162.855
121.608     88.670  -164.186
123.377     88.509  -165.536
125.171     88.493  -166.826
126.992     88.422  -168.090
128.839     88.480  -169.457
130.713     88.311  -170.829
132.615     88.294  -172.194
134.543     88.256  -173.778
136.500     88.258  -175.423
138.486     88.323  -177.029
140.500     88.189  -178.908
142.544     88.020   179.354
144.617     87.877   178.070
146.721     87.735   176.995
148.855     87.548   176.051
151.020     87.438   175.243
153.217     87.313   174.316
155.445     87.296   173.167
157.706     87.108   171.924
160.000     86.871   170.839
162.327     86.710   170.224
164.688     86.556   170.354
167.084     86.463   170.902
169.514     86.455   171.323
171.980     86.517   171.297
174.481     86.609   170.669
177.019     86.639   169.682
179.594     86.547   168.974
182.206     86.586   168.540
184.856     86.611   168.011
187.545     86.643   167.122
190.273     86.676   165.992
193.041     86.718   165.098
195.849     86.690   164.276
198.697     86.715   163.442
201.587     86.633   162.859
204.520     86.757   162.235
207.494     86.817   161.292
210.512     86.876   160.025
213.574     86.854   158.704
216.681     86.835   157.393
219.833     86.804   156.270
223.030     86.769   155.460
226.274     86.740   154.589
229.565     86.719   153.608
232.905     86.669   152.656
236.292     86.599   151.794
239.729     86.588   151.087
243.216     86.618   150.507
246.754     86.570   150.013
250.343     86.604   149.386
253.984     86.655   148.557
257.678     86.654   147.678
261.426     86.643   146.959
265.229     86.684   146.223
269.087     86.707   145.460
273.001     86.736   144.844
276.972     86.763   144.166
281.000     86.804   143.302
285.088     86.899   142.274
289.234     86.898   141.172
293.441     86.991   140.048
297.709     86.999   138.904
302.040     86.999   137.752
306.433     86.999   136.588
310.890     86.999   135.449
315.412     86.950   134.367
320.000     86.945   133.300
324.655     86.907   132.317
329.377     86.897   131.430
334.168     86.828   130.574
339.028     86.799   129.792
343.959     86.799   129.059
348.962     86.799   128.348
354.038     86.799   127.634
359.188     86.799   126.866
364.412     86.799   126.023
369.713     86.799   125.123
375.090     86.892   124.164
380.546     86.899   123.126
386.081     86.899   122.060
391.697     86.899   120.958
397.394     86.899   119.851
403.175     86.799   118.838
409.039     86.799   117.884
414.989     86.799   117.016
421.025     86.705   116.279
427.149     86.674   115.667
433.362     86.599   115.169
439.665     86.599   114.738
446.060     86.599   114.370
452.548     86.605   114.028
459.131     86.699   113.667
465.809     86.699   113.258
472.584     86.743   112.796
479.458     86.852   112.274
486.432     86.952   111.684
493.507     87.014   111.032
500.686     87.099   110.326
507.968     87.174   109.588
515.357     87.259   108.816
522.853     87.404   107.976
530.458     87.499   107.048
538.174     87.537   106.031
546.002     87.623   104.913
553.943     87.713   103.663
562.001     87.799   102.289
570.175     87.869   100.818
578.469     87.899    99.293
586.883     87.899    97.796
595.419     87.899    96.371
604.080     87.899    95.012
612.866     87.899    93.720
621.780     87.899    92.468
630.824     87.923    91.198
640.000     87.999    89.872
649.309     87.999    88.445
658.753     87.999    86.877
668.335     87.999    85.166
678.056     87.926    83.456
687.919     87.856    81.823
697.925     87.751    80.367
708.077     87.699    79.173
718.376     87.606    78.194
728.825     87.599    77.329
739.426     87.599    76.416
750.181     87.599    75.302
761.093     87.599    73.911
772.163     87.592    72.317
783.394     87.499    70.648
794.789     87.358    69.096
806.349     87.134    67.909
818.078     86.902    67.178
829.977     86.687    66.869
842.050     86.525    66.839
854.298     86.393    66.890
866.724     86.299    66.885
879.330     86.222    66.803
892.120     86.145    66.914
905.097     86.013    67.633
918.262     85.899    68.612
931.618     85.799    69.683
945.169     85.758    70.884
958.917     85.749    72.162
972.864     85.831    73.291
987.015     85.976    73.944
1001.37     86.154    73.883
1015.94     86.309    73.121
1030.71     86.399    71.929
1045.71     86.399    70.541
1060.92     86.399    69.031
1076.35     86.399    67.355
1092.00     86.362    65.489
1107.89     86.242    63.647
1124.00     86.079    62.205
1140.35     85.975    61.238
1156.94     85.921    60.314
1173.77     85.999    59.000
1190.84     85.999    57.364
1208.16     86.031    55.832
1225.73     86.115    54.467
1243.56     86.321    52.642
1261.65     86.635    49.668
1280.00     86.881    45.580
1298.62     86.999    41.051
1317.51     87.009    36.653
1336.67     87.099    32.446
1356.11     87.167    28.062
1375.84     87.272    23.092
1395.85     87.315    17.574
1416.15     87.399    12.132
1436.75     87.322     7.493
1457.65     87.299     3.254
1478.85     87.218    -0.688
1500.36     87.199    -4.104
1522.19     87.231    -7.298
1544.33     87.381   -10.954
1566.79     87.551   -15.343
1589.58     87.680   -20.284
1612.70     87.791   -25.811
1636.16     87.784   -31.944
1659.95     87.585   -37.854
1684.10     87.274   -42.784
1708.60     86.996   -47.282
1733.45     86.674   -51.773
1758.66     86.288   -55.455
1784.24     86.028   -58.189
1810.19     85.881   -61.476
1836.52     85.657   -65.793
1863.24     85.291   -69.910
1890.34     84.883   -73.052
1917.83     84.538   -75.757
1945.73     84.174   -78.534
1974.03     83.755   -80.282
2002.74     83.600   -81.178
2031.87     83.689   -84.196
2061.43     83.432   -88.902
2091.41     82.889   -92.102
2121.83     82.347   -93.534
2152.69     81.939   -94.177
2184.01     81.716   -94.228
2215.77     81.628   -95.096
2248.00     81.318   -96.778
2280.70     80.820   -95.523
2313.87     80.939   -92.295
2347.53     81.404   -92.485
2381.68     81.640   -94.683
2416.32     81.775   -96.912
2451.46     81.881  -100.190
2487.12     81.557  -103.589
2523.30     81.068  -103.282
2560.00     80.999  -102.052
2597.24     80.999  -101.460
2635.01     81.132  -100.650
2673.34     81.348  -100.760
2712.23     81.617  -100.660
2751.68     82.076  -101.373
2791.70     82.340  -104.351
2832.31     82.235  -104.671
2873.50     82.620  -103.619
2915.30     83.235  -103.658
2957.70     84.051  -106.590
3000.72     84.412  -111.621
3044.37     84.499  -115.208
3088.65     84.686  -117.482
3133.58     85.095  -120.407
3179.16     85.458  -125.167
3225.40     85.388  -130.138
3272.31     85.378  -133.049
3319.91     85.493  -136.106
3368.20     85.561  -139.221
3417.19     85.599  -142.685
3466.89     85.599  -146.606
3517.32     85.472  -149.982
3568.48     85.338  -152.398
3620.39     85.335  -154.715
3673.05     85.327  -157.665
3726.47     85.153  -160.256
3780.67     84.996  -162.790
3835.67     84.771  -164.905
3891.46     84.482  -165.373
3948.06     84.374  -164.891
4005.49     84.392  -163.474
4063.75     84.874  -162.347
4122.86     85.464  -163.499
4182.82     85.942  -166.484
4243.66     86.350  -169.587
4305.39     86.689  -173.477
4368.01     86.882  -177.747
4431.55     86.971   178.068
4496.01     87.046   173.853
4561.40     87.088   169.598
4627.75     86.957   165.375
4695.06     86.760   161.214
4763.35     86.303   158.334
4832.64     85.964   157.658
4902.93     85.859   157.277
4974.24     85.815   157.558
5046.60     86.087   158.002
5120.00     86.492   156.998
5194.47     86.919   155.629
5270.03     87.631   153.296
5346.68     88.257   147.186
5424.45     88.405   140.669
5503.35     88.541   134.867
5583.40     88.509   127.798
5664.61     88.096   121.827
5747.01     87.714   117.522
5830.60     87.307   113.150
5915.41     86.699   110.351
6001.45     86.318   109.001
6088.74     86.044   107.527
6177.30     85.919   107.139
6267.15     86.165   105.404
6358.31     86.176   101.500
6450.80     86.161    98.515
6544.62     85.987    93.760
6639.82     85.521    91.112
6736.40     85.142    89.835
6834.38     84.903    90.328
6933.79     85.004    90.865
7034.64     85.418    90.196
7136.96     85.806    88.104
7240.77     86.318    84.779
7346.09     86.572    79.729
7452.94     86.774    74.738
7561.35     86.849    68.770
7671.33     86.665    63.045
7782.91     86.306    57.698
7896.12     85.708    54.051
8010.97     85.251    52.354
8127.49     84.942    51.611
8245.71     85.007    51.632
8365.65     85.229    49.993
8487.33     85.609    46.660
8610.78     85.699    41.539
8736.03     85.648    36.669
8863.09     85.356    32.400
8992.01     85.092    29.334
9122.80     84.823    27.257
9255.50     84.799    25.782
9390.12     84.811    23.931
9526.70     84.899    21.194
9665.27     84.874    18.597
9805.86     84.899    16.194
9948.49     84.965    14.007
10093.2     85.060    10.877
10240.0     85.096     7.835
10388.9     85.162     5.185
10540.1     85.397     1.636
10693.4     85.558    -3.494
10848.9     85.468    -9.843
11006.7     85.013   -15.165
11166.8     84.460   -18.223
11329.2     84.086   -19.625
11494.0     83.999   -21.074
11661.2     83.999   -24.146
11830.8     83.777   -27.556
12002.9     83.424   -28.869
12177.5     83.404   -29.054
12354.6     83.623   -30.775
12534.3     83.786   -33.572
12716.6     83.913   -36.674
12901.6     84.019   -40.220
13089.2     84.099   -44.029
13279.6     84.157   -47.648
13472.8     84.364   -51.084
13668.8     84.733   -55.762
13867.6     84.899   -62.208
14069.3     84.847   -68.172
14273.9     84.831   -72.503
14481.5     85.063   -76.974
14692.2     85.353   -83.173
14905.9     85.538   -90.395
15122.7     85.617   -97.692
15342.7     85.699  -105.329
15565.8     85.699  -113.456
15792.2     85.584  -121.533
16021.9     85.381  -129.486
16255.0     85.060  -137.443
16491.4     84.661  -144.661
16731.3     84.275  -150.925
16974.7     83.882  -156.998
17221.6     83.455  -162.421
17472.1     83.109  -166.653
17726.2     82.967  -171.004
17984.0     82.809  -176.309
18245.6     82.629   177.995
18511.0     82.499   171.867
18780.2     82.377   164.820
19053.4     82.080   157.633
19330.5     81.737   150.129
19611.7     81.264   142.060
19897.0     80.742   135.965
20186.4     80.693   130.942
20480.0     80.643   125.920
20777.9     80.593   120.898
21080.1     80.544   115.876
21386.7     80.494   110.854
21697.8     80.445   105.831
22013.4     80.395   100.809
22333.6     80.346    95.787
22658.4     80.296    90.764
22988.0     80.247    85.743
23322.4     80.197    80.721
23661.6     80.147    75.699
24005.8     80.098    70.676
24355.0     80.048    65.655
24709.2     79.999    60.632
25068.6     79.949    55.610
25433.2     79.900    50.587
25803.2     79.850    45.566
26178.5     79.800    40.544
26559.3     79.751    35.522
26945.6     79.701    30.499
27337.5     79.652    25.477
27735.2     79.602    20.456
28138.6     79.553    15.433
28547.9     79.503    10.412
28963.1     79.454     5.389
29384.4     79.404     0.367
29811.8     79.354    -4.656
30245.4     79.305    -9.678
30685.3     79.255   -14.700
31131.7     79.206   -19.722
31584.5     79.156   -24.744
32043.9     79.107   -29.766
32510.0     79.057   -34.788
32982.8     79.007   -39.810
33462.6     78.958   -44.833
33949.3     78.908   -49.855
34443.1     78.859   -54.877
34944.1     78.809   -59.899
35452.4     78.760   -64.921
35968.0     78.710   -69.943
36491.2     78.661   -74.965
37022.0     78.611   -79.987
37560.5     78.561   -85.010
38106.8     78.512   -90.032
38661.1     78.462   -95.054
39223.4     78.413  -100.076
39793.9     78.363  -105.098
