Freq[Hz]     dBSPL  Phase[Deg]
5.00000     43.311    40.022
5.07273     43.574    39.775
5.14651     43.837    39.529
5.22137     44.100    39.284
5.29732     44.351    39.031
5.37437     44.594    38.773
5.45254     44.837    38.516
5.53185     45.085    38.254
5.61231     45.338    37.983
5.69394     45.592    37.714
5.77676     45.848    37.441
5.86079     46.112    37.159
5.94604     46.376    36.878
6.03252     46.630    36.592
6.12027     46.868    36.298
6.20929     47.106    36.006
6.29961     47.349    35.705
6.39124     47.596    35.399
6.48420     47.843    35.094
6.57851     48.098    34.778
6.67420     48.353    34.461
6.77128     48.602    34.142
6.86977     48.827    33.811
6.96969     49.051    33.483
7.07107     49.310    33.145
7.17392     49.583    32.803
7.27827     49.847    32.459
7.38413     50.086    32.105
7.49154     50.325    31.752
7.60050     50.570    31.387
7.71105     50.817    31.022
7.82321     51.068    30.648
7.93701     51.321    30.271
8.05245     51.578    29.888
8.16958     51.839    29.499
8.28841     52.102    29.106
8.40896     52.370    28.705
8.53128     52.627    28.301
8.65537     52.852    27.887
8.78126     53.079    27.471
8.90899     53.310    27.045
9.03857     53.558    26.616
9.17004     53.848    26.179
9.30342     54.119    25.737
9.43874     54.361    25.288
9.57603     54.607    24.832
9.71532     54.856    24.371
9.85663     55.108    23.900
10.0000     55.363    23.428
10.1455     55.623    22.941
10.2930     55.867    22.453
10.4427     56.073    21.955
10.5946     56.319    21.450
10.7487     56.591    20.942
10.9051     56.868    20.421
11.0637     57.122    19.895
11.2246     57.341    19.361
11.3879     57.564    18.817
11.5535     57.810    18.269
11.7216     58.104    17.712
11.8921     58.347    17.145
12.0650     58.580    16.571
12.2405     58.816    15.990
12.4186     59.057    15.397
12.5992     59.300    14.797
12.7825     59.545    14.190
12.9684     59.794    13.573
13.1570     60.047    12.946
13.3484     60.303    12.310
13.5426     60.562    11.667
13.7395     60.824    11.014
13.9394     61.090    10.349
14.1421     61.360     9.676
14.3478     61.593     8.993
14.5565     61.809     8.301
14.7683     62.089     7.599
14.9831     62.372     6.885
15.2010     62.580     6.161
15.4221     62.852     5.426
15.6464     63.088     4.681
15.8740     63.346     3.926
16.1049     63.607     3.159
16.3392     63.856     2.382
16.5768     64.137     1.593
16.8179     64.356     0.792
17.0626     64.577    -0.020
17.3107     64.827    -0.844
17.5625     65.130    -1.681
17.8180     65.360    -2.529
18.0771     65.593    -3.389
18.3401     65.830    -4.262
18.6068     66.069    -5.148
18.8775     66.312    -6.047
19.1521     66.619    -6.959
19.4306     66.907    -7.884
19.7133     67.159    -8.821
20.0000     67.314    -9.773
20.2909     67.589   -10.732
20.5860     67.990   -11.650
20.8855     68.362   -12.609
21.1893     68.651   -13.648
21.4975     68.897   -14.779
21.8102     69.179   -15.993
22.1274     69.401   -17.219
22.4492     69.579   -18.384
22.7758     69.809   -19.402
23.1071     69.995   -20.215
23.4432     70.276   -20.890
23.7841     70.526   -21.539
24.1301     70.803   -22.312
24.4811     70.991   -23.251
24.8372     71.351   -24.356
25.1984     71.578   -25.512
25.5649     71.751   -26.621
25.9368     72.056   -27.626
26.3141     72.225   -28.528
26.6968     72.378   -29.363
27.0851     72.567   -30.143
27.4791     72.694   -30.847
27.8788     72.951   -31.422
28.2843     73.113   -31.896
28.6957     73.277   -32.332
29.1131     73.544   -32.825
29.5365     73.794   -33.409
29.9661     74.003   -34.062
30.4020     74.221   -34.717
30.8442     74.459   -35.358
31.2929     74.688   -36.035
31.7480     74.898   -36.799
32.2098     75.262   -37.643
32.6783     75.394   -38.466
33.1536     75.661   -39.198
33.6359     75.769   -39.868
34.1251     76.081   -40.570
34.6215     76.302   -41.368
35.1250     76.458   -42.224
35.6359     76.722   -43.070
36.1543     76.933   -43.902
36.6802     77.159   -44.781
37.2137     77.423   -45.750
37.7550     77.611   -46.760
38.3041     77.839   -47.737
38.8613     77.955   -48.686
39.4265     78.204   -49.670
40.0000     78.422   -50.744
40.5818     78.650   -51.914
41.1721     78.768   -53.109
41.7710     79.001   -54.230
42.3785     79.050   -55.146
42.9949     79.199   -55.887
43.6203     79.399   -56.571
44.2548     79.601   -57.325
44.8985     79.799   -58.172
45.5515     80.020   -59.084
46.2141     80.185   -60.063
46.8863     80.399   -61.058
47.5683     80.599   -61.998
48.2602     80.799   -62.913
48.9621     80.899   -63.833
49.6743     81.069   -64.652
50.3968     81.258   -65.324
51.1299     81.451   -65.978
51.8736     81.548   -66.703
52.6281     81.750   -67.478
53.3936     82.079   -68.320
54.1702     82.267   -69.226
54.9581     82.482   -70.172
55.7575     82.702   -71.268
56.5685     82.926   -72.513
57.3914     83.156   -73.720
58.2261     83.299   -74.938
59.0730     83.628   -76.345
59.9323     83.799   -77.762
60.8040     84.021   -79.095
61.6884     84.144   -80.435
62.5857     84.309   -81.722
63.4960     84.536   -82.941
64.4196     84.667   -84.195
65.3566     84.888   -85.487
66.3073     85.116   -86.854
67.2717     85.208   -88.299
68.2502     85.399   -89.739
69.2429     85.507   -91.232
70.2501     85.799   -92.756
71.2719     85.999   -94.282
72.3086     86.144   -95.861
73.3603     86.367   -97.509
74.4274     86.575   -99.283
75.5099     86.603  -101.091
76.6083     86.799  -102.971
77.7226     86.899  -104.879
78.8531     86.999  -106.633
80.0000     87.099  -108.361
81.1636     87.199  -110.113
82.3442     87.299  -111.841
83.5419     87.312  -113.435
84.7570     87.455  -114.932
85.9899     87.580  -116.437
87.2406     87.599  -118.079
88.5096     87.703  -119.774
89.7970     87.899  -121.523
91.1031     87.982  -123.416
92.4282     88.099  -125.458
93.7726     88.099  -127.316
95.1366     88.166  -129.427
96.5204     88.219  -131.673
97.9243     88.299  -134.019
99.3486     88.199  -136.355
100.794     88.159  -138.300
102.260     88.099  -139.881
103.747     88.069  -141.139
105.256     87.999  -142.618
106.787     88.099  -144.395
108.340     88.183  -146.118
109.916     88.099  -147.837
111.515     88.105  -149.699
113.137     88.099  -151.582
114.783     88.041  -153.463
116.452     87.899  -155.238
118.146     87.799  -156.781
119.865     87.649  -158.195
121.608     87.663  -159.430
123.377     87.499  -160.683
125.171     87.393  -161.876
126.992     87.299  -163.042
128.839     87.298  -164.312
130.713     87.118  -165.587
132.615     87.094  -166.857
134.543     87.039  -168.345
136.500     86.998  -169.898
138.486     87.023  -171.423
140.500     86.872  -173.218
142.544     86.653  -174.870
144.617     86.477  -176.080
146.721     86.285  -177.085
148.855     86.082  -177.957
151.020     85.921  -178.695
153.217     85.763  -179.551
155.445     85.696   179.372
157.706     85.508   178.207
160.000     85.157   177.213
162.327     84.927   176.700
164.688     84.740   176.936
167.084     84.548   177.613
169.514     84.527   178.189
171.980     84.488   178.334
174.481     84.525   177.880
177.019     84.481   177.081
179.594     84.333   176.589
182.206     84.299   176.400
184.856     84.268   176.129
187.545     84.243   175.490
190.273     84.189   174.637
193.041     84.161   174.029
195.849     84.102   173.499
198.697     84.040   172.984
201.587     83.933   172.724
204.520     83.894   172.427
207.494     83.917   171.814
210.512     83.898   170.901
213.574     83.817   169.935
216.681     83.735   168.960
219.833     83.648   168.194
223.030     83.569   167.763
226.274     83.440   167.268
229.565     83.352   166.663
232.905     83.258   166.086
236.292     83.121   165.597
239.729     83.028   165.281
243.216     82.985   165.090
246.754     82.900   164.982
250.343     82.844   164.758
253.984     82.815   164.325
257.678     82.754   163.834
261.426     82.652   163.509
265.229     82.684   163.151
269.087     82.707   162.744
273.001     82.586   162.458
276.972     82.563   162.080
281.000     82.567   161.496
285.088     82.599   160.717
289.234     82.598   159.821
293.441     82.599   158.859
297.709     82.544   157.838
302.040     82.466   156.774
306.433     82.349   155.675
310.890     82.207   154.590
315.412     82.050   153.565
320.000     81.922   152.581
324.655     81.757   151.730
329.377     81.559   151.048
334.168     81.314   150.517
339.028     81.091   150.181
343.959     80.892   150.022
348.962     80.745   149.995
354.038     80.621   150.051
359.188     80.463   150.132
364.412     80.339   150.172
369.713     80.228   150.114
375.090     80.126   149.922
380.546     80.072   149.580
386.081     79.973   149.114
391.697     79.843   148.554
397.394     79.643   147.968
403.175     79.426   147.473
409.039     79.193   147.131
414.989     78.968   147.035
421.025     78.705   147.264
427.149     78.412   147.837
433.362     78.158   148.746
439.665     77.927   150.009
446.060     77.787   151.478
452.548     77.682   153.046
459.131     77.599   154.663
465.809     77.599   156.257
472.584     77.599   157.743
479.458     77.673   159.099
486.432     77.815   160.333
493.507     77.939   161.389
500.686     78.099   162.195
507.968     78.279   162.660
515.357     78.484   162.760
522.853     78.709   162.506
530.458     78.866   161.960
538.174     78.899   161.255
546.002     78.980   160.540
553.943     78.999   159.931
562.001     78.999   159.513
570.175     79.034   159.291
578.469     79.099   159.169
586.883     79.195   158.992
595.419     79.312   158.622
604.080     79.416   157.999
612.866     79.499   157.185
621.780     79.499   156.351
630.824     79.499   155.721
640.000     79.499   155.484
649.309     79.499   155.674
658.753     79.549   156.173
668.335     79.684   156.760
678.056     79.884   157.174
687.919     80.117   157.298
697.925     80.384   157.150
708.077     80.670   156.817
718.376     81.003   156.334
728.825     81.313   155.629
739.426     81.637   154.568
750.181     81.982   153.068
761.093     82.239   151.216
772.163     82.409   149.300
783.394     82.547   147.622
794.789     82.599   146.399
806.349     82.689   145.641
818.078     82.832   145.013
829.977     83.015   144.125
842.050     83.196   142.797
854.298     83.308   141.203
866.724     83.399   139.748
879.330     83.399   138.718
892.120     83.399   138.363
905.097     83.449   138.683
918.262     83.563   138.854
931.618     83.691   138.471
945.169     83.796   137.670
958.917     83.799   136.698
972.864     83.704   135.724
987.015     83.586   134.845
1001.37     83.404   134.218
1015.94     83.182   134.105
1030.71     82.974   134.601
1045.71     82.849   135.448
1060.92     82.799   136.200
1076.35     82.799   136.683
1092.00     82.799   137.062
1107.89     82.901   137.283
1124.00     83.022   136.918
1140.35     83.099   135.846
1156.94     83.019   134.769
1173.77     82.899   134.628
1190.84     82.950   135.142
1208.16     83.178   134.903
1225.73     83.299   133.413
1243.56     83.370   131.843
1261.65     83.479   131.006
1280.00     83.803   129.652
1298.62     84.126   126.505
1317.51     84.199   122.576
1336.67     84.199   119.738
1356.11     84.354   117.528
1375.84     84.663   113.699
1395.85     84.788   108.264
1416.15     84.644   103.801
1436.75     84.560   101.602
1457.65     84.632    99.756
1478.85     84.699    97.429
1500.36     84.796    95.352
1522.19     84.969    93.030
1544.33     85.099    89.834
1566.79     85.099    86.882
1589.58     85.201    84.689
1612.70     85.413    81.790
1636.16     85.577    77.743
1659.95     85.542    73.890
1684.10     85.417    71.058
1708.60     85.399    68.966
1733.45     85.487    66.643
1758.66     85.599    63.517
1784.24     85.599    60.809
1810.19     85.745    58.448
1836.52     85.898    54.661
1863.24     85.899    50.796
1890.34     85.943    47.834
1917.83     86.067    43.806
1945.73     85.955    39.883
1974.03     85.957    36.996
2002.74     85.999    33.170
2031.87     85.999    29.414
2061.43     85.999    25.429
2091.41     85.858    20.851
2121.83     85.614    17.803
2152.69     85.469    14.390
2184.01     85.200    11.493
2215.77     85.099     9.754
2248.00     85.050     7.179
2280.70     84.999     4.781
2313.87     84.937     1.238
2347.53     84.685    -1.349
2381.68     84.567    -3.950
2416.32     84.271    -6.748
2451.46     83.992    -8.408
2487.12     83.741    -9.621
2523.30     83.522   -11.241
2560.00     82.970   -11.402
2597.24     82.859    -8.997
2635.01     83.004    -7.189
2673.34     83.580    -6.527
2712.23     83.963    -8.928
2751.68     84.217   -11.866
2791.70     84.126   -13.905
2832.31     84.428   -15.172
2873.50     84.461   -18.020
2915.30     84.740   -20.566
2957.70     84.560   -24.820
3000.72     84.356   -27.256
3044.37     83.897   -29.047
3088.65     83.699   -28.440
3133.58     83.620   -28.625
3179.16     83.562   -28.527
3225.40     83.508   -27.775
3272.31     83.729   -27.135
3319.91     83.977   -27.014
3368.20     84.413   -28.130
3417.19     84.631   -30.094
3466.89     84.856   -33.161
3517.32     84.862   -35.602
3568.48     84.738   -37.742
3620.39     84.699   -39.751
3673.05     84.585   -41.636
3726.47     84.318   -43.084
3780.67     84.056   -43.023
3835.67     84.004   -42.043
3891.46     84.054   -42.476
3948.06     83.964   -42.676
4005.49     83.956   -42.062
4063.75     84.047   -41.339
4122.86     84.150   -41.703
4182.82     84.325   -41.557
4243.66     84.404   -41.827
4305.39     84.599   -42.620
4368.01     84.690   -43.813
4431.55     84.590   -44.886
4496.01     84.543   -44.376
4561.40     84.719   -44.065
4627.75     84.966   -44.232
4695.06     85.181   -44.849
4763.35     85.429   -46.150
4832.64     85.599   -48.493
4902.93     85.589   -50.815
4974.24     85.499   -52.206
5046.60     85.599   -53.804
5120.00     85.540   -56.328
5194.47     85.285   -58.273
5270.03     85.112   -59.487
5346.68     84.822   -60.924
5424.45     84.513   -61.305
5503.35     84.247   -61.766
5583.40     83.914   -61.861
5664.61     83.550   -60.872
5747.01     83.379   -58.697
5830.60     83.409   -56.637
5915.41     83.562   -55.599
6001.45     83.765   -56.128
6088.74     83.743   -57.452
6177.30     83.699   -58.242
6267.15     83.608   -59.450
6358.31     83.461   -59.885
6450.80     83.292   -60.464
6544.62     83.101   -60.365
6639.82     82.969   -61.391
6736.40     82.683   -61.365
6834.38     82.456   -61.348
6933.79     82.177   -60.638
7034.64     81.982   -59.543
7136.96     81.893   -58.714
7240.77     81.747   -58.064
7346.09     81.685   -57.498
7452.94     81.599   -57.285
7561.35     81.486   -57.502
7671.33     81.215   -57.584
7782.91     80.977   -56.953
7896.12     80.680   -56.355
8010.97     80.445   -55.813
8127.49     80.113   -55.701
8245.71     79.805   -55.161
8365.65     79.261   -53.791
8487.33     78.824   -51.138
8610.78     78.518   -47.661
8736.03     78.442   -45.143
8863.09     78.141   -42.521
8992.01     77.958   -38.318
9122.80     78.143   -34.002
9255.50     78.541   -32.395
9390.12     78.503   -32.062
9526.70     78.289   -31.047
9665.27     78.099   -28.135
9805.86     78.128   -25.545
9948.49     78.187   -24.373
10093.2     77.946   -23.492
10240.0     77.534   -21.086
10388.9     77.309   -17.081
10540.1     77.299   -13.477
10693.4     77.327   -10.521
10848.9     77.482    -8.902
11006.7     77.376    -8.978
11166.8     76.972    -8.465
11329.2     76.514    -6.483
11494.0     76.034    -4.638
11661.2     75.222    -1.745
11830.8     74.438     5.906
12002.9     74.379    15.657
12177.5     74.826    22.430
12354.6     75.295    26.747
12534.3     75.783    29.410
12716.6     76.079    30.435
12901.6     76.247    31.140
13089.2     76.385    30.678
13279.6     76.165    28.551
13472.8     75.449    28.760
13668.8     74.889    32.723
13867.6     74.799    36.552
14069.3     74.837    38.195
14273.9     74.747    39.060
14481.5     74.568    39.276
14692.2     74.085    38.333
14905.9     73.235    39.113
15122.7     72.458    42.225
15342.7     71.727    45.363
15565.8     70.821    50.053
15792.2     70.184    57.293
16021.9     69.836    63.543
16255.0     69.350    70.503
16491.4     69.285    79.349
16731.3     69.580    86.148
16974.7     69.890    90.907
17221.6     69.969    93.085
17472.1     69.562    96.506
17726.2     69.064   103.084
17984.0     68.818   111.181
18245.6     68.965   120.450
18511.0     69.652   127.060
18780.2     70.235   129.370
19053.4     70.433   130.219
19330.5     70.394   130.724
19611.7     70.075   131.208
19897.0     69.702   132.415
20186.4     69.495   135.763
20480.0     69.288   139.111
20777.9     69.081   142.458
21080.1     68.874   145.806
21386.7     68.667   149.154
21697.8     68.461   152.502
22013.4     68.254   155.849
22333.6     68.047   159.197
22658.4     67.840   162.545
22988.0     67.633   165.892
23322.4     67.426   169.240
23661.6     67.220   172.588
24005.8     67.013   175.936
24355.0     66.806   179.283
24709.2     66.599  -177.369
25068.6     66.392  -174.021
25433.2     66.185  -170.673
25803.2     65.979  -167.326
26178.5     65.772  -163.978
26559.3     65.565  -160.630
26945.6     65.358  -157.282
27337.5     65.151  -153.935
27735.2     64.945  -150.587
28138.6     64.738  -147.239
28547.9     64.531  -143.891
28963.1     64.324  -140.544
29384.4     64.117  -137.196
29811.8     63.910  -133.848
30245.4     63.704  -130.500
30685.3     63.497  -127.153
31131.7     63.290  -123.805
31584.5     63.083  -120.457
32043.9     62.876  -117.110
32510.0     62.669  -113.762
32982.8     62.463  -110.414
33462.6     62.256  -107.066
33949.3     62.049  -103.719
34443.1     61.842  -100.371
34944.1     61.635   -97.023
35452.4     61.429   -93.675
35968.0     61.222   -90.328
36491.2     61.015   -86.980
37022.0     60.808   -83.632
37560.5     60.601   -80.284
38106.8     60.394   -76.937
38661.1     60.188   -73.589
39223.4     59.981   -70.241
39793.9     59.774   -66.893
