Freq[Hz]     dBSPL  Phase[Deg]
5.00000     40.869    68.074
5.07273     41.139    67.738
5.14651     41.410    67.401
5.22137     41.680    67.065
5.29732     41.939    66.718
5.37437     42.190    66.366
5.45254     42.441    66.013
5.53185     42.696    65.654
5.61231     42.957    65.285
5.69394     43.218    64.915
5.77676     43.483    64.541
5.86079     43.754    64.155
5.94604     44.025    63.770
6.03252     44.287    63.378
6.12027     44.533    62.976
6.20929     44.779    62.574
6.29961     45.029    62.163
6.39124     45.284    61.745
6.48420     45.539    61.326
6.57851     45.801    60.894
6.67420     46.064    60.460
6.77128     46.320    60.021
6.86977     46.553    59.570
6.96969     46.785    59.119
7.07107     47.051    58.656
7.17392     47.332    58.188
7.27827     47.603    57.716
7.38413     47.850    57.232
7.49154     48.097    56.748
7.60050     48.350    56.249
7.71105     48.604    55.748
7.82321     48.862    55.237
7.93701     49.124    54.720
8.05245     49.388    54.196
8.16958     49.656    53.663
8.28841     49.927    53.125
8.40896     50.203    52.575
8.53128     50.467    52.021
8.65537     50.700    51.455
8.78126     50.935    50.884
8.90899     51.174    50.302
9.03857     51.430    49.714
9.17004     51.727    49.115
9.30342     52.005    48.510
9.43874     52.256    47.895
9.57603     52.509    47.270
9.71532     52.765    46.638
9.85663     53.026    45.994
10.0000     53.288    45.346
10.1455     53.555    44.681
10.2930     53.807    44.012
10.4427     54.021    43.331
10.5946     54.275    42.639
10.7487     54.554    41.942
10.9051     54.839    41.229
11.0637     55.101    40.508
11.2246     55.327    39.777
11.3879     55.557    39.033
11.5535     55.811    38.281
11.7216     56.114    37.519
11.8921     56.364    36.742
12.0650     56.605    35.956
12.2405     56.848    35.160
12.4186     57.096    34.348
12.5992     57.347    33.527
12.7825     57.600    32.695
12.9684     57.857    31.850
13.1570     58.117    30.991
13.3484     58.381    30.121
13.5426     58.647    29.239
13.7395     58.917    28.344
13.9394     59.191    27.434
14.1421     59.468    26.512
14.3478     59.709    25.577
14.5565     59.933    24.629
14.7683     60.220    23.667
14.9831     60.512    22.690
15.2010     60.727    21.698
15.4221     61.006    20.693
15.6464     61.251    19.672
15.8740     61.516    18.637
16.1049     61.785    17.588
16.3392     62.042    16.523
16.5768     62.330    15.443
16.8179     62.556    14.346
17.0626     62.786    13.234
17.3107     63.042    12.105
17.5625     63.353    10.960
17.8180     63.591     9.798
18.0771     63.832     8.620
18.3401     64.076     7.424
18.6068     64.323     6.211
18.8775     64.574     4.980
19.1521     64.888     3.732
19.4306     65.184     2.465
19.7133     65.443     1.180
20.0000     65.606    -0.123
20.2909     65.889    -1.439
20.5860     66.268    -2.749
20.8855     66.565    -4.123
21.1893     66.937    -5.571
21.4975     67.197    -7.101
21.8102     67.479    -8.707
22.1274     67.701   -10.316
22.4492     67.879   -11.854
22.7758     68.109   -13.236
23.1071     68.295   -14.403
23.4432     68.576   -15.423
23.7841     68.826   -16.406
24.1301     69.103   -17.504
24.4811     69.377   -18.758
24.8372     69.751   -20.168
25.1984     69.978   -21.621
25.5649     70.232   -23.016
25.9368     70.474   -24.298
26.3141     70.625   -25.469
26.6968     70.778   -26.564
27.0851     70.967   -27.595
27.4791     71.194   -28.541
27.8788     71.451   -29.349
28.2843     71.636   -30.049
28.6957     71.877   -30.702
29.1131     72.144   -31.405
29.5365     72.328   -32.192
29.9661     72.586   -33.041
30.4020     72.821   -33.884
30.8442     73.059   -34.708
31.2929     73.333   -35.560
31.7480     73.598   -36.493
32.2098     73.962   -37.501
32.6783     74.094   -38.481
33.1536     74.361   -39.365
33.6359     74.553   -40.182
34.1251     74.799   -41.026
34.6215     75.102   -41.960
35.1250     75.258   -42.948
35.6359     75.522   -43.922
36.1543     75.733   -44.878
36.6802     76.043   -45.876
37.2137     76.285   -46.960
37.7550     76.511   -48.082
38.3041     76.739   -49.167
38.8613     76.855   -50.221
39.4265     77.104   -51.308
40.0000     77.399   -52.480
40.5818     77.550   -53.747
41.1721     77.768   -55.036
41.7710     77.907   -56.247
42.3785     78.050   -57.251
42.9949     78.199   -58.079
43.6203     78.399   -58.847
44.2548     78.601   -59.683
44.8985     78.799   -60.610
45.5515     79.020   -61.601
46.2141     79.285   -62.657
46.8863     79.499   -63.728
47.5683     79.699   -64.742
48.2602     79.899   -65.729
48.9621     79.999   -66.721
49.6743     80.169   -67.610
50.3968     80.358   -68.353
51.1299     80.551   -69.075
51.8736     80.748   -69.868
52.6281     80.850   -70.710
53.3936     81.179   -71.619
54.1702     81.467   -72.591
54.9581     81.582   -73.603
55.7575     81.902   -74.764
56.5685     82.079   -76.074
57.3914     82.356   -77.346
58.2261     82.499   -78.629
59.0730     82.797   -80.100
59.9323     82.999   -81.581
60.8040     83.221   -82.979
61.6884     83.344   -84.384
62.5857     83.509   -85.736
63.4960     83.736   -87.020
64.4196     83.876   -88.339
65.3566     84.088   -89.697
66.3073     84.316   -91.131
67.2717     84.408   -92.642
68.2502     84.599   -94.150
69.2429     84.799   -95.711
70.2501     85.016   -97.304
71.2719     85.199   -98.899
72.3086     85.399  -100.548
73.3603     85.599  -102.267
74.4274     85.799  -104.113
75.5099     85.822  -105.994
76.6083     86.018  -107.948
77.7226     86.122  -109.931
78.8531     86.199  -111.761
80.0000     86.354  -113.567
81.1636     86.499  -115.398
82.3442     86.499  -117.207
83.5419     86.599  -118.881
84.7570     86.699  -120.462
85.9899     86.799  -122.051
87.2406     86.799  -123.779
88.5096     87.003  -125.562
89.7970     87.099  -127.400
91.1031     87.182  -129.385
92.4282     87.299  -131.519
93.7726     87.299  -133.472
95.1366     87.366  -135.680
96.5204     87.419  -138.025
97.9243     87.499  -140.473
99.3486     87.399  -142.912
100.794     87.359  -144.962
102.260     87.299  -146.651
103.747     87.269  -148.019
105.256     87.199  -149.611
106.787     87.299  -151.504
108.340     87.283  -153.345
109.916     87.299  -155.185
111.515     87.256  -157.170
113.137     87.199  -159.179
114.783     87.185  -161.191
116.452     87.000  -163.098
118.146     86.899  -164.776
119.865     86.749  -166.329
121.608     86.763  -167.707
123.377     86.599  -169.106
125.171     86.493  -170.448
126.992     86.399  -171.768
128.839     86.380  -173.195
130.713     86.118  -174.631
132.615     86.094  -176.066
134.543     86.023  -177.728
136.500     85.958  -179.459
138.486     85.963   178.851
140.500     85.806   176.873
142.544     85.570   175.018
144.617     85.357   173.619
146.721     85.152   172.424
148.855     84.915   171.340
151.020     84.721   170.388
153.217     84.547   169.314
155.445     84.462   168.016
157.706     84.208   166.627
160.000     83.871   165.388
162.327     83.610   164.627
164.688     83.340   164.632
167.084     83.148   165.057
169.514     83.027   165.360
171.980     82.959   165.233
174.481     82.975   164.525
177.019     82.910   163.474
179.594     82.690   162.712
182.206     82.574   162.238
184.856     82.468   161.686
187.545     82.372   160.792
190.273     82.251   159.672
193.041     82.204   158.807
195.849     82.002   158.032
198.697     81.865   157.270
201.587     81.658   156.783
204.520     81.582   156.281
207.494     81.480   155.490
210.512     81.365   154.422
213.574     81.167   153.338
216.681     80.998   152.293
219.833     80.759   151.501
223.030     80.547   151.101
226.274     80.318   150.702
229.565     80.097   150.261
232.905     79.869   149.916
236.292     79.632   149.724
239.729     79.418   149.786
243.216     79.262   150.028
246.754     79.080   150.393
250.343     78.944   150.690
253.984     78.815   150.783
257.678     78.694   150.801
261.426     78.571   150.978
265.229     78.544   151.077
269.087     78.498   151.076
273.001     78.366   151.148
276.972     78.363   151.083
281.000     78.267   150.788
285.088     78.266   150.282
289.234     78.198   149.639
293.441     78.132   148.918
297.709     78.081   148.135
302.040     77.957   147.306
306.433     77.807   146.454
310.890     77.630   145.623
315.412     77.441   144.845
320.000     77.261   144.094
324.655     77.074   143.453
329.377     76.844   142.952
334.168     76.592   142.576
339.028     76.337   142.351
343.959     76.106   142.259
348.962     75.937   142.263
354.038     75.771   142.322
359.188     75.599   142.390
364.412     75.426   142.415
369.713     75.264   142.348
375.090     75.132   142.157
380.546     75.012   141.826
386.081     74.893   141.370
391.697     74.724   140.803
397.394     74.505   140.169
403.175     74.279   139.564
409.039     74.028   139.012
414.989     73.793   138.568
421.025     73.517   138.283
427.149     73.212   138.162
433.362     72.905   138.196
439.665     72.588   138.373
446.060     72.311   138.675
452.548     72.010   139.122
459.131     71.649   139.805
465.809     71.273   140.890
472.584     70.893   142.543
479.458     70.599   144.940
486.432     70.388   148.192
493.507     70.304   152.110
500.686     70.479   156.135
507.968     70.874   159.432
515.357     71.424   161.452
522.853     72.085   162.018
530.458     72.647   161.204
538.174     73.075   159.347
546.002     73.418   156.873
553.943     73.649   154.117
562.001     73.767   151.430
570.175     73.799   149.113
578.469     73.799   147.348
586.883     73.799   146.178
595.419     73.847   145.416
604.080     73.999   144.760
612.866     74.224   143.920
621.780     74.519   142.680
630.824     74.831   140.950
640.000     75.139   138.784
649.309     75.415   136.253
658.753     75.661   133.372
668.335     75.847   130.157
678.056     75.957   126.859
687.919     75.985   123.643
697.925     75.884   120.828
708.077     75.785   118.806
718.376     75.699   117.729
728.825     75.699   117.468
739.426     75.847   117.436
750.181     76.192   116.845
761.093     76.552   115.170
772.163     76.826   112.488
783.394     76.993   109.270
794.789     76.933   106.199
806.349     76.709   104.051
818.078     76.469   103.123
829.977     76.277   103.191
842.050     76.199   103.650
854.298     76.275   103.961
866.724     76.328   104.006
879.330     76.402   103.966
892.120     76.499   104.111
905.097     76.577   104.529
918.262     76.643   104.537
931.618     76.648   104.026
945.169     76.502   103.580
958.917     76.267   103.854
972.864     76.046   104.971
987.015     75.925   106.390
1001.37     75.899   107.527
1015.94     75.804   108.383
1030.71     75.727   109.367
1045.71     75.699   110.480
1060.92     75.775   111.115
1076.35     75.782   111.036
1092.00     75.662   110.984
1107.89     75.599   111.664
1124.00     75.626   112.383
1140.35     75.739   111.734
1156.94     75.627   109.940
1173.77     75.223   109.407
1190.84     74.916   111.757
1208.16     75.112   114.638
1225.73     75.544   114.668
1243.56     75.772   112.498
1261.65     75.819   110.906
1280.00     76.039   109.779
1298.62     76.346   106.746
1317.51     76.324   102.293
1336.67     75.999    99.921
1356.11     76.022    99.916
1375.84     76.504    97.553
1395.85     76.681    91.736
1416.15     76.387    87.507
1436.75     76.260    87.421
1457.65     76.673    86.502
1478.85     76.935    82.323
1500.36     76.782    78.561
1522.19     76.622    76.817
1544.33     76.699    74.811
1566.79     76.612    72.588
1589.58     76.634    71.377
1612.70     76.858    69.178
1636.16     76.999    65.676
1659.95     76.951    63.383
1684.10     77.162    61.347
1708.60     77.377    57.625
1733.45     77.399    53.868
1758.66     77.489    50.754
1784.24     77.645    47.466
1810.19     77.851    43.568
1836.52     77.948    37.897
1863.24     77.632    32.535
1890.34     77.336    29.861
1917.83     77.251    26.302
1945.73     76.778    23.683
1974.03     76.717    25.428
2002.74     77.388    23.370
2031.87     77.599    17.629
2061.43     77.548    12.811
2091.41     77.298     8.608
2121.83     77.184     7.001
2152.69     77.523     2.046
2184.01     77.037    -4.874
2215.77     76.374    -6.501
2248.00     76.039    -8.121
2280.70     75.710    -8.442
2313.87     75.582    -9.844
2347.53     75.170   -10.145
2381.68     75.317   -10.277
2416.32     75.023   -13.273
2451.46     74.615   -12.485
2487.12     74.506   -11.038
2523.30     74.745   -10.463
2560.00     74.524   -11.805
2597.24     74.596    -8.680
2635.01     75.062    -8.332
2673.34     75.675    -9.136
2712.23     75.996   -12.116
2751.68     76.725   -15.373
2791.70     76.503   -23.727
2832.31     76.101   -24.884
2873.50     75.748   -28.925
2915.30     75.335   -27.715
2957.70     75.239   -28.453
3000.72     75.330   -29.590
3044.37     74.688   -31.777
3088.65     74.592   -27.795
3133.58     74.905   -27.822
3179.16     75.519   -27.170
3225.40     76.007   -33.346
3272.31     75.727   -37.947
3319.91     75.326   -41.320
3368.20     74.960   -43.115
3417.19     74.300   -43.006
3466.89     74.107   -43.236
3517.32     73.777   -40.073
3568.48     73.715   -40.216
3620.39     73.558   -36.831
3673.05     74.013   -33.079
3726.47     74.615   -33.209
3780.67     75.249   -33.744
3835.67     75.598   -37.468
3891.46     75.616   -42.549
3948.06     75.260   -44.635
4005.49     74.933   -45.675
4063.75     74.669   -47.115
4122.86     74.219   -47.008
4182.82     73.754   -43.754
4243.66     73.962   -40.440
4305.39     74.323   -40.963
4368.01     74.351   -40.508
4431.55     74.479   -40.611
4496.01     74.808   -41.858
4561.40     74.872   -44.593
4627.75     74.830   -45.981
4695.06     74.718   -48.973
4763.35     74.237   -51.945
4832.64     73.768   -50.585
4902.93     73.815   -50.767
4974.24     73.387   -50.780
5046.60     73.356   -50.029
5120.00     73.180   -51.410
5194.47     72.508   -50.518
5270.03     72.196   -47.872
5346.68     72.128   -43.995
5424.45     72.356   -42.072
5503.35     72.534   -41.368
5583.40     72.662   -41.461
5664.61     72.581   -42.665
5747.01     72.440   -42.879
5830.60     72.163   -43.903
5915.41     71.711   -44.125
6001.45     71.387   -42.843
6088.74     71.138   -41.898
6177.30     70.978   -41.947
6267.15     70.518   -41.908
6358.31     70.474   -40.127
6450.80     70.097   -40.392
6544.62     69.878   -37.135
6639.82     69.962   -36.036
6736.40     69.799   -34.217
6834.38     69.839   -32.996
6933.79     69.854   -33.505
7034.64     69.562   -33.267
7136.96     69.359   -32.115
7240.77     69.078   -31.239
7346.09     68.899   -29.900
7452.94     68.755   -30.072
7561.35     68.416   -31.225
7671.33     67.711   -31.937
7782.91     66.930   -31.725
7896.12     65.824   -29.386
8010.97     65.369   -23.966
8127.49     64.925   -19.176
8245.71     65.255   -13.336
8365.65     65.151   -11.338
8487.33     65.392    -7.445
8610.78     65.269    -4.753
8736.03     65.278    -0.884
8863.09     64.925     1.301
8992.01     64.625     5.540
9122.80     64.284     9.711
9255.50     64.091    13.222
9390.12     63.906    17.256
9526.70     63.840    21.148
9665.27     63.836    25.916
9805.86     63.999    30.213
9948.49     64.294    32.783
10093.2     64.415    35.019
10240.0     64.431    36.760
10388.9     64.482    40.223
10540.1     64.424    41.560
10693.4     64.133    42.213
10848.9     63.741    43.248
11006.7     63.076    44.743
11166.8     62.392    48.040
11329.2     61.726    53.881
11494.0     61.399    60.962
11661.2     61.399    65.814
11830.8     61.370    69.452
12002.9     61.180    72.394
12177.5     61.042    75.767
12354.6     60.854    77.892
12534.3     60.522    78.182
12716.6     59.860    80.135
12901.6     59.149    85.531
13089.2     58.792    89.542
13279.6     58.300    91.832
13472.8     57.468    94.808
13668.8     56.168    98.045
13867.6     54.459   105.817
14069.3     53.368   119.824
14273.9     52.840   130.950
14481.5     52.526   141.491
14692.2     52.696   151.254
14905.9     52.986   158.856
15122.7     53.202   165.752
15342.7     53.738   172.735
15565.8     54.426  -179.577
15792.2     54.860  -176.480
16021.9     54.819  -174.181
16255.0     54.906  -172.460
16491.4     54.708  -169.444
16731.3     54.422  -162.993
16974.7     54.582  -157.371
17221.6     54.685  -155.409
17472.1     54.344  -153.810
17726.2     53.608  -150.985
17984.0     52.414  -150.529
18245.6     51.155  -143.122
18511.0     50.468  -134.520
18780.2     50.310  -128.870
19053.4     49.616  -126.002
19330.5     48.853  -124.587
19611.7     48.712  -122.283
19897.0     48.423  -122.093
20186.4     48.091  -117.164
20480.0     47.759  -112.235
20777.9     47.427  -107.306
21080.1     47.096  -102.378
21386.7     46.764   -97.449
21697.8     46.432   -92.520
22013.4     46.100   -87.591
22333.6     45.768   -82.662
22658.4     45.437   -77.732
22988.0     45.105   -72.805
23322.4     44.773   -67.876
23661.6     44.441   -62.947
24005.8     44.109   -58.018
24355.0     43.777   -53.090
24709.2     43.446   -48.161
25068.6     43.114   -43.232
25433.2     42.782   -38.302
25803.2     42.450   -33.374
26178.5     42.118   -28.445
26559.3     41.787   -23.517
26945.6     41.455   -18.588
27337.5     41.123   -13.659
27735.2     40.791    -8.731
28138.6     40.459    -3.801
28547.9     40.127     1.127
28963.1     39.796     6.056
29384.4     39.464    10.985
29811.8     39.132    15.914
30245.4     38.800    20.843
30685.3     38.468    25.772
31131.7     38.137    30.700
31584.5     37.805    35.629
32043.9     37.473    40.558
32510.0     37.141    45.487
32982.8     36.809    50.416
33462.6     36.477    55.345
33949.3     36.146    60.273
34443.1     35.814    65.202
34944.1     35.482    70.131
35452.4     35.150    75.060
35968.0     34.818    79.989
36491.2     34.487    84.917
37022.0     34.155    89.846
37560.5     33.823    94.775
38106.8     33.491    99.704
38661.1     33.159   104.633
39223.4     32.827   109.562
39793.9     32.496   114.490
