Freq[Hz]     dBSPL  Phase[Deg]
5.00000     44.034    44.019
5.07273     44.290    43.770
5.14651     44.547    43.521
5.22137     44.803    43.274
5.29732     45.047    43.018
5.37437     45.284    42.757
5.45254     45.521    42.498
5.53185     45.762    42.233
5.61231     46.009    41.960
5.69394     46.256    41.688
5.77676     46.507    41.412
5.86079     46.764    41.127
5.94604     47.021    40.843
6.03252     47.269    40.554
6.12027     47.501    40.257
6.20929     47.733    39.962
6.29961     47.969    39.658
6.39124     48.210    39.349
6.48420     48.450    39.041
6.57851     48.698    38.721
6.67420     48.947    38.401
6.77128     49.190    38.078
6.86977     49.408    37.745
6.96969     49.626    37.413
7.07107     49.878    37.071
7.17392     50.145    36.726
7.27827     50.402    36.378
7.38413     50.635    36.020
7.49154     50.867    35.664
7.60050     51.107    35.295
7.71105     51.347    34.926
7.82321     51.591    34.548
7.93701     51.838    34.167
8.05245     52.089    33.781
8.16958     52.343    33.387
8.28841     52.599    32.990
8.40896     52.861    32.584
8.53128     53.112    32.176
8.65537     53.331    31.758
8.78126     53.551    31.338
8.90899     53.776    30.907
9.03857     54.018    30.474
9.17004     54.301    30.032
9.30342     54.565    29.586
9.43874     54.801    29.132
9.57603     55.041    28.671
9.71532     55.283    28.206
9.85663     55.529    27.730
10.0000     55.777    27.252
10.1455     56.031    26.761
10.2930     56.269    26.268
10.4427     56.468    25.765
10.5946     56.708    25.255
10.7487     56.973    24.741
10.9051     57.244    24.214
11.0637     57.492    23.683
11.2246     57.704    23.144
11.3879     57.920    22.594
11.5535     58.160    22.040
11.7216     58.448    21.478
11.8921     58.684    20.904
12.0650     58.911    20.324
12.2405     59.141    19.738
12.4186     59.375    19.138
12.5992     59.611    18.532
12.7825     59.850    17.919
12.9684     60.093    17.295
13.1570     60.340    16.661
13.3484     60.589    16.019
13.5426     60.841    15.369
13.7395     61.097    14.709
13.9394     61.357    14.038
14.1421     61.620    13.357
14.3478     61.847    12.667
14.5565     62.056    11.968
14.7683     62.330    11.258
14.9831     62.607    10.538
15.2010     62.808     9.806
15.4221     63.074     9.063
15.6464     63.304     8.311
15.8740     63.555     7.547
16.1049     63.810     6.773
16.3392     64.053     5.987
16.5768     64.327     5.190
16.8179     64.539     4.381
17.0626     64.754     3.561
17.3107     64.997     2.728
17.5625     65.294     1.883
17.8180     65.518     1.026
18.0771     65.745     0.156
18.3401     65.975    -0.726
18.6068     66.208    -1.621
18.8775     66.444    -2.529
19.1521     66.744    -3.450
19.4306     67.026    -4.385
19.7133     67.271    -5.333
20.0000     67.420    -6.295
20.2909     67.689    -7.264
20.5860     68.090    -8.182
20.8855     68.462    -9.143
21.1893     68.751   -10.186
21.4975     68.997   -11.322
21.8102     69.223   -12.542
22.1274     69.444   -13.777
22.4492     69.679   -14.951
22.7758     69.909   -15.979
23.1071     70.085   -16.804
23.4432     70.276   -17.492
23.7841     70.526   -18.154
24.1301     70.803   -18.943
24.4811     70.991   -19.898
24.8372     71.351   -21.020
25.1984     71.659   -22.194
25.5649     71.851   -23.321
25.9368     72.074   -24.346
26.3141     72.225   -25.269
26.6968     72.288   -26.124
27.0851     72.467   -26.926
27.4791     72.694   -27.652
27.8788     72.951   -28.249
28.2843     73.113   -28.747
28.6957     73.277   -29.205
29.1131     73.544   -29.722
29.5365     73.728   -30.330
29.9661     73.986   -31.008
30.4020     74.221   -31.687
30.8442     74.437   -32.353
31.2929     74.633   -33.055
31.7480     74.898   -33.844
32.2098     75.167   -34.713
32.6783     75.394   -35.561
33.1536     75.607   -36.318
33.6359     75.753   -37.013
34.1251     75.999   -37.740
34.6215     76.248   -38.562
35.1250     76.449   -39.442
35.6359     76.653   -40.313
36.1543     76.861   -41.169
36.6802     77.143   -42.072
37.2137     77.385   -43.064
37.7550     77.601   -44.097
38.3041     77.799   -45.097
38.8613     77.944   -46.068
39.4265     78.170   -47.074
40.0000     78.399   -48.169
40.5818     78.632   -49.361
41.1721     78.768   -50.576
41.7710     78.907   -51.716
42.3785     79.050   -52.651
42.9949     79.199   -53.410
43.6203     79.388   -54.112
44.2548     79.585   -54.883
44.8985     79.799   -55.746
45.5515     80.020   -56.674
46.2141     80.185   -57.667
46.8863     80.399   -58.676
47.5683     80.599   -59.629
48.2602     80.799   -60.556
48.9621     80.899   -61.487
49.6743     81.069   -62.316
50.3968     81.258   -62.997
51.1299     81.451   -63.659
51.8736     81.648   -64.391
52.6281     81.850   -65.171
53.3936     82.099   -66.018
54.1702     82.367   -66.927
54.9581     82.582   -67.876
55.7575     82.802   -68.972
56.5685     83.026   -70.218
57.3914     83.284   -71.423
58.2261     83.499   -72.638
59.0730     83.728   -74.040
59.9323     83.933   -75.451
60.8040     84.221   -76.776
61.6884     84.344   -78.107
62.5857     84.509   -79.384
63.4960     84.736   -80.590
64.4196     84.876   -81.830
65.3566     85.088   -83.106
66.3073     85.322   -84.456
67.2717     85.477   -85.882
68.2502     85.662   -87.301
69.2429     85.899   -88.771
70.2501     86.116   -90.270
71.2719     86.361   -91.769
72.3086     86.499   -93.319
73.3603     86.767   -94.936
74.4274     86.975   -96.677
75.5099     87.022   -98.450
76.6083     87.218  -100.293
77.7226     87.322  -102.162
78.8531     87.431  -103.873
80.0000     87.599  -105.558
81.1636     87.762  -107.264
82.3442     87.799  -108.944
83.5419     87.899  -110.486
84.7570     88.055  -111.931
85.9899     88.199  -113.380
87.2406     88.222  -114.965
88.5096     88.403  -116.600
89.7970     88.599  -118.287
91.1031     88.682  -120.115
92.4282     88.899  -122.090
93.7726     88.899  -123.879
95.1366     88.966  -125.919
96.5204     89.119  -128.092
97.9243     89.199  -130.363
99.3486     89.099  -132.623
100.794     89.082  -134.490
102.260     89.099  -135.991
103.747     89.099  -137.168
105.256     89.099  -138.566
106.787     89.199  -140.261
108.340     89.283  -141.902
109.916     89.299  -143.539
111.515     89.356  -145.320
113.137     89.299  -147.123
114.783     89.341  -148.928
116.452     89.299  -150.629
118.146     89.199  -152.102
119.865     89.149  -153.451
121.608     89.163  -154.628
123.377     89.009  -155.831
125.171     88.993  -156.984
126.992     88.999  -158.122
128.839     88.998  -159.377
130.713     88.911  -160.653
132.615     88.981  -161.941
134.543     88.939  -163.470
136.500     88.978  -165.086
138.486     89.043  -166.690
140.500     88.956  -168.595
142.544     88.787  -170.395
144.617     88.677  -171.764
146.721     88.535  -172.949
148.855     88.382  -174.036
151.020     88.254  -175.003
153.217     88.130  -176.096
155.445     88.112  -177.411
157.706     87.908  -178.806
160.000     87.657   179.966
162.327     87.427   179.243
164.688     87.240   179.312
167.084     87.091   179.838
169.514     87.027  -179.711
171.980     87.045  -179.651
174.481     87.075   179.847
177.019     87.039   179.029
179.594     86.905   178.541
182.206     86.899   178.383
184.856     86.882   178.162
187.545     86.872   177.583
190.273     86.876   176.802
193.041     86.875   176.270
195.849     86.802   175.816
198.697     86.840   175.376
201.587     86.733   175.183
204.520     86.782   174.942
207.494     86.905   174.370
210.512     86.976   173.480
213.574     86.954   172.515
216.681     86.935   171.517
219.833     86.904   170.700
223.030     86.869   170.182
226.274     86.874   169.568
229.565     86.819   168.808
232.905     86.835   168.044
236.292     86.777   167.337
239.729     86.788   166.764
243.216     86.807   166.295
246.754     86.750   165.899
250.343     86.804   165.371
253.984     86.785   164.650
257.678     86.754   163.899
261.426     86.743   163.349
265.229     86.824   162.824
269.087     86.807   162.321
273.001     86.776   162.011
276.972     86.863   161.686
281.000     86.867   161.233
285.088     86.899   160.669
289.234     86.980   160.052
293.441     87.032   159.420
297.709     87.099   158.762
302.040     87.099   158.073
306.433     87.099   157.360
310.890     87.099   156.641
315.412     87.100   155.923
320.000     87.176   155.160
324.655     87.199   154.424
329.377     87.174   153.735
334.168     87.099   153.053
339.028     87.099   152.423
343.959     87.099   151.844
348.962     87.099   151.310
354.038     87.099   150.812
359.188     87.049   150.324
364.412     86.999   149.835
369.713     86.999   149.346
375.090     86.999   148.845
380.546     86.999   148.304
386.081     86.999   147.736
391.697     86.999   147.121
397.394     86.999   146.467
403.175     86.906   145.829
409.039     86.899   145.193
414.989     86.899   144.591
421.025     86.811   144.076
427.149     86.737   143.677
433.362     86.646   143.423
439.665     86.582   143.323
446.060     86.499   143.391
452.548     86.499   143.605
459.131     86.499   143.931
465.809     86.499   144.316
472.584     86.499   144.684
479.458     86.588   144.979
486.432     86.699   145.166
493.507     86.789   145.223
500.686     86.864   145.153
507.968     86.919   144.986
515.357     86.999   144.763
522.853     87.099   144.516
530.458     87.161   144.272
538.174     87.099   144.045
546.002     87.199   143.821
553.943     87.199   143.569
562.001     87.272   143.256
570.175     87.299   142.856
578.469     87.329   142.364
586.883     87.399   141.811
595.419     87.399   141.234
604.080     87.399   140.664
612.866     87.341   140.129
621.780     87.299   139.638
630.824     87.299   139.164
640.000     87.299   138.668
649.309     87.299   138.103
658.753     87.203   137.440
668.335     87.177   136.692
678.056     87.076   135.968
687.919     86.949   135.373
697.925     86.795   135.020
708.077     86.674   134.969
718.376     86.592   135.171
728.825     86.499   135.488
739.426     86.416   135.735
750.181     86.399   135.770
761.093     86.376   135.581
772.163     86.262   135.303
783.394     86.144   135.152
794.789     85.927   135.348
806.349     85.699   135.981
818.078     85.496   136.979
829.977     85.343   138.131
842.050     85.225   139.241
854.298     85.108   140.258
866.724     84.970   141.279
879.330     84.839   142.524
892.120     84.696   144.280
905.097     84.549   146.783
918.262     84.499   149.388
931.618     84.458   151.680
945.169     84.399   153.655
958.917     84.346   155.474
972.864     84.249   157.351
987.015     84.153   159.452
1001.37     84.099   161.841
1015.94     84.139   164.299
1030.71     84.299   166.368
1045.71     84.532   167.592
1060.92     84.759   167.729
1076.35     84.897   167.099
1092.00     84.878   166.445
1107.89     84.799   166.410
1124.00     84.799   166.975
1140.35     84.941   167.329
1156.94     85.149   166.620
1173.77     85.297   164.864
1190.84     85.299   162.844
1208.16     85.263   161.248
1225.73     85.199   159.937
1243.56     85.313   158.133
1261.65     85.417   155.382
1280.00     85.443   152.096
1298.62     85.377   149.077
1317.51     85.312   146.563
1336.67     85.441   143.860
1356.11     85.622   140.019
1375.84     85.699   134.806
1395.85     85.670   128.902
1416.15     85.492   123.420
1436.75     85.254   119.165
1457.65     85.011   115.668
1478.85     84.828   112.577
1500.36     84.745   109.353
1522.19     84.699   105.149
1544.33     84.571   100.137
1566.79     84.275    95.458
1589.58     84.001    91.249
1612.70     83.777    86.322
1636.16     83.419    80.549
1659.95     82.844    75.377
1684.10     82.209    71.246
1708.60     81.589    67.350
1733.45     80.911    64.136
1758.66     80.349    62.119
1784.24     80.060    59.726
1810.19     79.847    55.398
1836.52     79.385    49.472
1863.24     78.652    44.016
1890.34     77.922    40.839
1917.83     77.570    37.488
1945.73     77.116    31.621
1974.03     76.194    27.388
2002.74     75.488    26.493
2031.87     75.144    24.317
2061.43     74.652    21.885
2091.41     74.407    20.643
2121.83     74.464    16.838
2152.69     74.264    12.027
2184.01     74.258     8.954
2215.77     74.556     3.956
2248.00     74.551    -2.371
2280.70     74.587    -6.085
2313.87     74.991   -11.171
2347.53     75.219   -17.312
2381.68     75.614   -22.302
2416.32     76.174   -28.586
2451.46     76.712   -35.959
2487.12     76.989   -44.174
2523.30     77.039   -50.384
2560.00     77.188   -56.095
2597.24     77.323   -61.013
2635.01     77.620   -65.376
2673.34     77.926   -70.098
2712.23     78.254   -75.164
2751.68     78.481   -79.958
2791.70     78.761   -85.034
2832.31     78.727   -89.292
2873.50     78.931   -92.655
2915.30     78.851   -96.322
2957.70     78.883   -97.773
3000.72     79.152   -99.150
3044.37     79.389  -101.765
3088.65     79.520  -102.730
3133.58     79.933  -104.411
3179.16     80.209  -106.254
3225.40     80.475  -107.768
3272.31     80.867  -109.541
3319.91     81.194  -111.575
3368.20     81.496  -113.057
3417.19     81.938  -113.944
3466.89     82.502  -115.954
3517.32     82.967  -118.342
3568.48     83.358  -120.635
3620.39     83.849  -122.986
3673.05     84.358  -126.016
3726.47     84.772  -129.007
3780.67     85.197  -132.078
3835.67     85.686  -135.621
3891.46     86.077  -139.796
3948.06     86.383  -143.907
4005.49     86.612  -147.820
4063.75     86.942  -151.569
4122.86     87.213  -155.814
4182.82     87.409  -160.460
4243.66     87.589  -164.384
4305.39     87.851  -168.842
4368.01     87.977  -173.955
4431.55     87.999  -179.629
4496.01     87.892   174.941
4561.40     87.676   169.766
4627.75     87.326   165.273
4695.06     86.873   162.383
4763.35     86.521   160.302
4832.64     86.305   158.582
4902.93     86.107   156.371
4974.24     85.723   155.020
5046.60     85.550   155.901
5120.00     85.749   156.051
5194.47     86.006   155.696
5270.03     86.633   154.202
5346.68     87.079   148.639
5424.45     87.052   143.219
5503.35     86.999   138.850
5583.40     86.862   134.163
5664.61     86.624   131.026
5747.01     86.599   127.644
5830.60     86.426   122.659
5915.41     85.919   118.606
6001.45     85.516   115.975
6088.74     85.041   113.139
6177.30     84.484   112.122
6267.15     84.135   111.692
6358.31     83.749   112.874
6450.80     83.849   115.594
6544.62     84.240   115.866
6639.82     84.793   115.269
6736.40     85.445   112.172
6834.38     85.893   106.930
6933.79     86.019   100.912
7034.64     85.985    94.792
7136.96     85.616    89.895
7240.77     85.286    86.377
7346.09     84.866    83.912
7452.94     84.639    83.006
7561.35     84.640    81.907
7671.33     84.774    80.462
7782.91     85.032    77.806
7896.12     85.149    74.246
8010.97     85.302    70.233
8127.49     85.299    65.129
8245.71     85.321    59.774
8365.65     85.005    54.011
8487.33     84.550    49.470
8610.78     83.895    46.224
8736.03     83.355    45.312
8863.09     82.970    45.833
8992.01     83.064    46.595
9122.80     83.337    45.813
9255.50     83.713    43.284
9390.12     83.837    39.783
9526.70     83.944    35.863
9665.27     83.899    31.949
9805.86     83.813    27.689
9948.49     83.560    24.127
10093.2     83.208    21.368
10240.0     82.916    19.844
10388.9     82.775    19.002
10540.1     82.868    17.857
10693.4     83.086    15.206
10848.9     83.129    10.701
11006.7     82.864     6.449
11166.8     82.541     3.508
11329.2     82.293     1.331
11494.0     82.151    -0.500
11661.2     82.099    -2.572
11830.8     82.067    -5.427
12002.9     81.962    -8.577
12177.5     81.787   -11.854
12354.6     81.486   -15.052
12534.3     81.044   -17.085
12716.6     80.674   -17.069
12901.6     80.692   -16.185
13089.2     81.084   -16.892
13279.6     81.543   -19.997
13472.8     81.950   -24.615
13668.8     82.279   -30.200
13867.6     82.478   -36.865
14069.3     82.499   -44.036
14273.9     82.386   -50.970
14481.5     82.183   -57.965
14692.2     81.844   -64.798
14905.9     81.455   -70.956
15122.7     81.090   -76.599
15342.7     80.766   -82.553
15565.8     80.394   -89.307
15792.2     79.822   -95.875
16021.9     79.084  -101.080
16255.0     78.391  -105.410
16491.4     77.709  -109.434
16731.3     76.977  -112.559
16974.7     76.272  -114.599
17221.6     75.677  -115.999
17472.1     75.167  -116.149
17726.2     74.851  -116.219
17984.0     74.585  -116.906
18245.6     74.352  -117.337
18511.0     74.323  -117.362
18780.2     74.517  -118.829
19053.4     74.744  -122.563
19330.5     74.777  -127.744
19611.7     74.515  -133.641
19897.0     74.093  -138.312
20186.4     73.888  -142.060
20480.0     73.683  -145.808
20777.9     73.478  -149.557
21080.1     73.273  -153.305
21386.7     73.068  -157.053
21697.8     72.863  -160.801
22013.4     72.657  -164.550
22333.6     72.452  -168.298
22658.4     72.247  -172.047
22988.0     72.042  -175.794
23322.4     71.837  -179.543
23661.6     71.632   176.709
24005.8     71.427   172.961
24355.0     71.222   169.213
24709.2     71.017   165.464
25068.6     70.812   161.716
25433.2     70.606   157.968
25803.2     70.401   154.220
26178.5     70.196   150.471
26559.3     69.991   146.723
26945.6     69.786   142.975
27337.5     69.581   139.227
27735.2     69.376   135.478
28138.6     69.171   131.730
28547.9     68.966   127.982
28963.1     68.761   124.233
29384.4     68.555   120.485
29811.8     68.350   116.737
30245.4     68.145   112.989
30685.3     67.940   109.240
31131.7     67.735   105.492
31584.5     67.530   101.744
32043.9     67.325    97.996
32510.0     67.120    94.247
32982.8     66.915    90.499
33462.6     66.710    86.751
33949.3     66.504    83.003
34443.1     66.299    79.254
34944.1     66.094    75.506
35452.4     65.889    71.758
35968.0     65.684    68.010
36491.2     65.479    64.261
37022.0     65.274    60.513
37560.5     65.069    56.765
38106.8     64.864    53.017
38661.1     64.658    49.268
39223.4     64.453    45.520
39793.9     64.248    41.772
