Freq[Hz]     dBSPL  Phase[Deg]
5.00000     39.179    52.898
5.07273     39.471    52.595
5.14651     39.763    52.292
5.22137     40.055    51.989
5.29732     40.335    51.676
5.37437     40.608    51.358
5.45254     40.880    51.041
5.53185     41.157    50.717
5.61231     41.440    50.384
5.69394     41.722    50.051
5.77676     42.008    49.714
5.86079     42.301    49.366
5.94604     42.594    49.019
6.03252     42.877    48.666
6.12027     43.145    48.304
6.20929     43.412    47.942
6.29961     43.684    47.571
6.39124     43.960    47.194
6.48420     44.237    46.817
6.57851     44.520    46.427
6.67420     44.805    46.036
6.77128     45.083    45.641
6.86977     45.337    45.234
6.96969     45.591    44.828
7.07107     45.878    44.411
7.17392     46.180    43.989
7.27827     46.473    43.564
7.38413     46.742    43.127
7.49154     47.010    42.691
7.60050     47.285    42.241
7.71105     47.560    41.790
7.82321     47.840    41.329
7.93701     48.123    40.864
8.05245     48.409    40.391
8.16958     48.699    39.911
8.28841     48.991    39.426
8.40896     49.288    38.930
8.53128     49.575    38.431
8.65537     49.829    37.921
8.78126     50.085    37.407
8.90899     50.345    36.881
9.03857     50.623    36.352
9.17004     50.942    35.812
9.30342     51.242    35.267
9.43874     51.514    34.713
9.57603     51.789    34.150
9.71532     52.067    33.581
9.85663     52.348    33.000
10.0000     52.632    32.416
10.1455     52.921    31.817
10.2930     53.195    31.213
10.4427     53.430    30.599
10.5946     53.706    29.976
10.7487     54.006    29.348
10.9051     54.313    28.705
11.0637     54.596    28.056
11.2246     54.844    27.397
11.3879     55.096    26.726
11.5535     55.371    26.049
11.7216     55.695    25.362
11.8921     55.966    24.661
12.0650     56.229    23.953
12.2405     56.494    23.236
12.4186     56.764    22.504
12.5992     57.036    21.764
12.7825     57.311    21.015
12.9684     57.589    20.253
13.1570     57.871    19.479
13.3484     58.156    18.694
13.5426     58.444    17.900
13.7395     58.735    17.094
13.9394     59.031    16.274
14.1421     59.330    15.442
14.3478     59.592    14.600
14.5565     59.837    13.745
14.7683     60.146    12.878
14.9831     60.459    11.998
15.2010     60.696    11.104
15.4221     60.997    10.198
15.6464     61.263     9.278
15.8740     61.550     8.346
16.1049     61.840     7.400
16.3392     62.118     6.440
16.5768     62.428     5.466
16.8179     62.676     4.478
17.0626     62.927     3.476
17.3107     63.205     2.458
17.5625     63.538     1.426
17.8180     63.797     0.379
18.0771     64.060    -0.683
18.3401     64.325    -1.760
18.6068     64.594    -2.854
18.8775     64.866    -3.963
19.1521     65.202    -5.088
19.4306     65.519    -6.230
19.7133     65.800    -7.387
20.0000     65.985    -8.562
20.2909     66.289    -9.748
20.5860     66.690   -10.946
20.8855     67.065   -12.198
21.1893     67.437   -13.519
21.4975     67.697   -14.921
21.8102     67.979   -16.395
22.1274     68.201   -17.872
22.4492     68.409   -19.276
22.7758     68.729   -20.523
23.1071     68.985   -21.555
23.4432     69.178   -22.439
23.7841     69.521   -23.286
24.1301     69.803   -24.249
24.4811     70.077   -25.367
24.8372     70.451   -26.643
25.1984     70.678   -27.962
25.5649     70.932   -29.225
25.9368     71.174   -30.376
26.3141     71.325   -31.418
26.6968     71.568   -32.384
27.0851     71.767   -33.288
27.4791     71.994   -34.109
27.8788     72.251   -34.794
28.2843     72.413   -35.373
28.6957     72.613   -35.907
29.1131     72.944   -36.493
29.5365     73.194   -37.164
29.9661     73.486   -37.900
30.4020     73.721   -38.632
30.8442     73.937   -39.346
31.2929     74.133   -40.091
31.7480     74.398   -40.920
32.2098     74.762   -41.825
32.6783     74.994   -42.704
33.1536     75.207   -43.490
33.6359     75.353   -44.211
34.1251     75.699   -44.961
34.6215     75.948   -45.803
35.1250     76.149   -46.701
35.6359     76.422   -47.587
36.1543     76.633   -48.457
36.6802     76.859   -49.371
37.2137     77.123   -50.374
37.7550     77.401   -51.416
38.3041     77.599   -52.424
38.8613     77.755   -53.402
39.4265     78.004   -54.415
40.0000     78.299   -55.516
40.5818     78.450   -56.713
41.1721     78.668   -57.934
41.7710     78.807   -59.080
42.3785     78.950   -60.020
42.9949     79.099   -60.786
43.6203     79.388   -61.494
44.2548     79.501   -62.272
44.8985     79.699   -63.143
45.5515     79.958   -64.080
46.2141     80.185   -65.084
46.8863     80.399   -66.104
47.5683     80.599   -67.070
48.2602     80.799   -68.011
48.9621     80.899   -68.959
49.6743     81.069   -69.806
50.3968     81.258   -70.508
51.1299     81.451   -71.193
51.8736     81.648   -71.949
52.6281     81.850   -72.758
53.3936     82.179   -73.635
54.1702     82.367   -74.577
54.9581     82.582   -75.562
55.7575     82.876   -76.697
56.5685     83.026   -77.985
57.3914     83.284   -79.236
58.2261     83.499   -80.501
59.0730     83.728   -81.956
59.9323     83.933   -83.425
60.8040     84.221   -84.812
61.6884     84.344   -86.209
62.5857     84.499   -87.555
63.4960     84.736   -88.837
64.4196     84.876   -90.156
65.3566     85.088   -91.517
66.3073     85.316   -92.957
67.2717     85.477   -94.478
68.2502     85.662   -95.997
69.2429     85.807   -97.574
70.2501     86.016   -99.186
71.2719     86.261  -100.803
72.3086     86.444  -102.478
73.3603     86.667  -104.227
74.4274     86.875  -106.106
75.5099     86.922  -108.025
76.6083     87.118  -110.020
77.7226     87.222  -112.049
78.8531     87.299  -113.929
80.0000     87.454  -115.789
81.1636     87.599  -117.679
82.3442     87.699  -119.551
83.5419     87.712  -121.295
84.7570     87.855  -122.950
85.9899     87.999  -124.618
87.2406     88.022  -126.432
88.5096     88.203  -128.306
89.7970     88.299  -130.241
91.1031     88.482  -132.328
92.4282     88.599  -134.573
93.7726     88.599  -136.643
95.1366     88.666  -138.975
96.5204     88.819  -141.451
97.9243     88.899  -144.037
99.3486     88.799  -146.624
100.794     88.682  -148.830
102.260     88.699  -150.684
103.747     88.699  -152.225
105.256     88.657  -154.001
106.787     88.799  -156.088
108.340     88.799  -158.133
109.916     88.799  -160.188
111.515     88.856  -162.400
113.137     88.799  -164.649
114.783     88.785  -166.912
116.452     88.699  -169.084
118.146     88.599  -171.040
119.865     88.449  -172.884
121.608     88.470  -174.566
123.377     88.309  -176.284
125.171     88.293  -177.958
126.992     88.199  -179.622
128.839     88.180   178.596
130.713     88.011   176.794
132.615     87.994   174.988
134.543     87.906   172.946
136.500     87.858   170.833
138.486     87.863   168.808
140.500     87.706   166.484
142.544     87.437   164.287
144.617     87.237   162.615
146.721     87.002   161.198
148.855     86.748   159.940
151.020     86.538   158.894
153.217     86.313   157.815
155.445     86.196   156.603
157.706     85.942   155.391
160.000     85.586   154.441
162.327     85.310   154.055
164.688     85.040   154.471
167.084     84.906   155.390
169.514     84.827   156.261
171.980     84.831   156.715
174.481     84.892   156.541
177.019     84.881   156.003
179.594     84.776   155.761
182.206     84.811   155.797
184.856     84.840   155.702
187.545     84.872   155.184
190.273     84.914   154.412
193.041     84.975   153.840
195.849     84.952   153.306
198.697     84.978   152.745
201.587     84.933   152.404
204.520     85.057   151.995
207.494     85.117   151.244
210.512     85.176   150.162
213.574     85.154   149.008
216.681     85.135   147.842
219.833     85.104   146.863
223.030     85.114   146.197
226.274     85.074   145.463
229.565     85.019   144.616
232.905     84.980   143.796
236.292     84.910   143.065
239.729     84.888   142.496
243.216     84.885   142.055
246.754     84.850   141.701
250.343     84.844   141.221
253.984     84.855   140.538
257.678     84.854   139.803
261.426     84.843   139.235
265.229     84.874   138.646
269.087     84.907   138.029
273.001     84.866   137.557
276.972     84.917   137.023
281.000     84.967   136.311
285.088     84.999   135.442
289.234     85.025   134.502
293.441     85.099   133.541
297.709     85.163   132.562
302.040     85.199   131.571
306.433     85.141   130.570
310.890     85.099   129.587
315.412     85.100   128.641
320.000     85.145   127.681
324.655     85.199   126.769
329.377     85.197   125.909
334.168     85.178   125.030
339.028     85.191   124.171
343.959     85.199   123.311
348.962     85.230   122.433
354.038     85.299   121.522
359.188     85.299   120.531
364.412     85.359   119.451
369.713     85.399   118.317
375.090     85.399   117.131
380.546     85.459   115.864
386.081     85.499   114.566
391.697     85.499   113.203
397.394     85.499   111.786
403.175     85.426   110.410
409.039     85.399   108.996
414.989     85.399   107.553
421.025     85.352   106.133
427.149     85.268   104.747
433.362     85.158   103.410
439.665     85.043   102.064
446.060     84.970   100.810
452.548     84.849    99.669
459.131     84.699    98.627
465.809     84.546    97.698
472.584     84.405    96.901
479.458     84.299    96.207
486.432     84.220    95.558
493.507     84.114    94.907
500.686     83.994    94.206
507.968     83.889    93.446
515.357     83.789    92.629
522.853     83.689    91.774
530.458     83.523    90.954
538.174     83.275    90.289
546.002     83.028    89.880
553.943     82.785    89.808
562.001     82.540    90.128
570.175     82.321    90.829
578.469     82.151    91.802
586.883     82.051    92.844
595.419     81.999    93.758
604.080     81.999    94.409
612.866     81.999    94.720
621.780     81.999    94.698
630.824     81.999    94.426
640.000     81.931    94.031
649.309     81.839    93.638
658.753     81.722    93.336
668.335     81.562    93.193
678.056     81.430    93.254
687.919     81.281    93.527
697.925     81.180    93.989
708.077     81.099    94.569
718.376     81.170    95.170
728.825     81.199    95.645
739.426     81.220    95.851
750.181     81.299    95.705
761.093     81.299    95.240
772.163     81.286    94.627
783.394     81.173    94.109
794.789     80.990    93.947
806.349     80.757    94.303
818.078     80.544    95.131
829.977     80.405    96.171
842.050     80.299    97.095
854.298     80.257    97.715
866.724     80.178    98.095
879.330     80.059    98.537
892.120     79.930    99.552
905.097     79.768   101.569
918.262     79.710   103.948
931.618     79.813   106.044
945.169     79.929   107.522
958.917     79.999   108.319
972.864     80.046   108.632
987.015     79.966   108.792
1001.37     79.797   109.152
1015.94     79.577   109.976
1030.71     79.359   111.324
1045.71     79.218   113.046
1060.92     79.199   114.706
1076.35     79.306   115.766
1092.00     79.476   115.918
1107.89     79.658   115.076
1124.00     79.808   113.383
1140.35     79.899   111.140
1156.94     79.819   108.731
1173.77     79.662   106.731
1190.84     79.518   105.538
1208.16     79.418   104.937
1225.73     79.499   104.017
1243.56     79.636   101.897
1261.65     79.699    98.558
1280.00     79.683    94.657
1298.62     79.560    90.650
1317.51     79.416    86.264
1336.67     79.182    81.169
1356.11     78.769    75.986
1375.84     78.230    71.939
1395.85     77.830    69.189
1416.15     77.699    66.099
1436.75     77.572    61.769
1457.65     77.090    57.216
1478.85     76.359    54.812
1500.36     75.833    54.497
1522.19     75.624    53.181
1544.33     75.306    49.706
1566.79     74.636    46.232
1589.58     73.801    44.483
1612.70     73.012    43.822
1636.16     72.216    43.684
1659.95     71.282    45.405
1684.10     70.436    50.229
1708.60     70.039    56.632
1733.45     70.005    62.426
1758.66     70.228    68.526
1784.24     71.033    73.971
1810.19     72.122    74.153
1836.52     72.583    69.808
1863.24     72.326    67.325
1890.34     72.148    70.409
1917.83     72.823    74.633
1945.73     73.835    74.884
1974.03     74.637    73.201
2002.74     75.580    71.453
2031.87     76.644    66.387
2061.43     77.162    58.698
2091.41     77.286    53.531
2121.83     77.689    49.860
2152.69     78.118    43.934
2184.01     78.199    38.155
2215.77     78.256    33.487
2248.00     78.288    27.603
2280.70     78.070    22.015
2313.87     77.842    17.861
2347.53     77.666    13.752
2381.68     77.395    10.829
2416.32     77.382     9.615
2451.46     77.741     6.610
2487.12     77.823     1.072
2523.30     77.630    -2.843
2560.00     77.650    -6.645
2597.24     77.544   -10.312
2635.01     77.677   -12.710
2673.34     77.864   -16.732
2712.23     77.806   -20.765
2751.68     77.869   -24.211
2791.70     77.899   -27.752
2832.31     78.170   -29.257
2873.50     78.856   -32.768
2915.30     79.319   -37.728
2957.70     79.825   -44.081
3000.72     79.963   -50.494
3044.37     80.372   -55.845
3088.65     80.826   -62.907
3133.58     81.324   -70.195
3179.16     81.809   -79.322
3225.40     81.915   -89.127
3272.31     82.108   -98.555
3319.91     82.044  -108.154
3368.20     82.161  -116.540
3417.19     82.112  -127.178
3466.89     81.830  -136.558
3517.32     81.565  -145.349
3568.48     81.224  -152.904
3620.39     81.099  -160.140
3673.05     81.099  -167.967
3726.47     81.099  -176.216
3780.67     80.961   174.481
3835.67     80.737   166.266
3891.46     80.519   157.709
3948.06     80.183   149.406
4005.49     79.792   142.087
4063.75     79.612   136.176
4122.86     79.514   130.002
4182.82     79.499   123.515
4243.66     79.621   117.553
4305.39     79.882   111.546
4368.01     80.333   104.318
4431.55     80.750    95.921
4496.01     81.226    86.906
4561.40     81.746    76.330
4627.75     82.068    64.681
4695.06     82.303    52.584
4763.35     82.297    39.472
4832.64     82.148    27.236
4902.93     81.935    15.362
4974.24     81.552     4.078
5046.60     81.291    -5.640
5120.00     81.187   -16.341
5194.47     80.819   -27.315
5270.03     80.599   -37.069
5346.68     80.344   -49.132
5424.45     79.629   -59.217
5503.35     79.234   -66.690
5583.40     79.056   -74.598
5664.61     78.948   -81.819
5747.01     79.334   -90.505
5830.60     79.599  -101.918
5915.41     79.654  -112.765
6001.45     79.964  -124.573
6088.74     80.191  -138.700
6177.30     80.120  -153.948
6267.15     79.803  -169.505
6358.31     79.002   176.388
6450.80     78.264   165.998
6544.62     77.813   155.666
6639.82     77.599   146.324
6736.40     77.577   135.396
6834.38     77.491   123.972
6933.79     77.356   112.422
7034.64     77.399   100.860
7136.96     77.439    89.293
7240.77     77.697    77.079
7346.09     77.882    63.050
7452.94     78.068    47.860
7561.35     78.024    31.539
7671.33     77.698    15.776
7782.91     77.364     0.811
7896.12     76.892   -13.100
8010.97     76.575   -25.990
8127.49     76.419   -39.208
8245.71     76.573   -53.458
8365.65     76.549   -69.175
8487.33     76.546   -85.101
8610.78     76.467  -102.213
8736.03     76.321  -119.873
8863.09     75.891  -137.491
8992.01     75.490  -154.699
9122.80     74.923  -171.873
9255.50     74.355   171.803
9390.12     73.634   156.549
9526.70     73.101   142.315
9665.27     72.679   128.292
9805.86     72.474   113.727
9948.49     72.379    98.172
10093.2     72.188    80.740
10240.0     71.777    62.455
10388.9     71.050    44.393
10540.1     70.183    28.860
10693.4     69.398    16.501
10848.9     69.231     5.400
11006.7     69.593    -7.966
11166.8     70.044   -24.512
11329.2     70.535   -42.891
11494.0     70.951   -63.736
11661.2     71.085   -86.271
11830.8     70.945  -108.562
12002.9     70.793  -129.992
12177.5     70.680  -151.860
12354.6     70.468  -174.494
12534.3     70.221   162.534
12716.6     69.981   138.413
12901.6     69.638   113.056
13089.2     69.075    86.096
13279.6     68.160    59.366
13472.8     66.943    33.579
13668.8     65.528     9.095
13867.6     64.069   -14.211
14069.3     62.531   -36.335
14273.9     60.986   -57.583
14481.5     59.223   -75.993
14692.2     57.413   -90.394
14905.9     56.020   -96.790
15122.7     56.637  -100.189
15342.7     58.715  -112.818
15565.8     60.712  -137.292
15792.2     61.801  -166.376
16021.9     62.388   163.968
16255.0     62.684   133.918
16491.4     62.759   104.822
16731.3     63.013    76.426
16974.7     63.358    44.872
17221.6     63.151    10.671
17472.1     62.376   -21.452
17726.2     61.474   -49.718
17984.0     60.986   -76.020
18245.6     61.135  -105.112
18511.0     61.075  -138.655
18780.2     60.537  -174.188
19053.4     59.606   151.676
19330.5     58.772   117.292
19611.7     58.122    78.485
19897.0     56.885    43.212
20186.4     56.576    20.078
20480.0     56.267    -3.056
20777.9     55.959   -26.188
21080.1     55.650   -49.322
21386.7     55.341   -72.456
21697.8     55.033   -95.587
22013.4     54.724  -118.719
22333.6     54.415  -141.852
22658.4     54.107  -164.988
22988.0     53.798   171.881
23322.4     53.489   148.751
23661.6     53.180   125.615
24005.8     52.872   102.486
24355.0     52.563    79.355
24709.2     52.254    56.218
25068.6     51.946    33.086
25433.2     51.637     9.951
25803.2     51.328   -13.178
26178.5     51.020   -36.311
26559.3     50.711   -59.442
26945.6     50.402   -82.575
27337.5     50.094  -105.710
27735.2     49.785  -128.839
28138.6     49.476  -151.972
28547.9     49.168  -175.105
28963.1     48.859   161.760
29384.4     48.550   138.630
29811.8     48.242   115.496
30245.4     47.933    92.362
30685.3     47.624    69.228
31131.7     47.316    46.099
31584.5     47.007    22.965
32043.9     46.698    -0.167
32510.0     46.390   -23.300
32982.8     46.081   -46.436
33462.6     45.772   -69.565
33949.3     45.464   -92.700
34443.1     45.155  -115.833
34944.1     44.846  -138.964
35452.4     44.538  -162.096
35968.0     44.229   174.768
36491.2     43.920   151.637
37022.0     43.612   128.506
37560.5     43.303   105.374
38106.8     42.994    82.239
38661.1     42.686    59.107
39223.4     42.377    35.974
39793.9     42.068    12.840
