Freq[Hz]     dBSPL  Phase[Deg]
5.00000     48.040    96.520
5.07273     48.255    96.137
5.14651     48.470    95.752
5.22137     48.685    95.367
5.29732     48.887    94.971
5.37437     49.082    94.568
5.45254     49.278    94.164
5.53185     49.477    93.753
5.61231     49.682    93.331
5.69394     49.888    92.908
5.77676     50.096    92.480
5.86079     50.312    92.039
5.94604     50.527    91.598
6.03252     50.733    91.150
6.12027     50.923    90.691
6.20929     51.113    90.231
6.29961     51.308    89.761
6.39124     51.507    89.283
6.48420     51.706    88.803
6.57851     51.912    88.310
6.67420     52.119    87.812
6.77128     52.320    87.311
6.86977     52.497    86.795
6.96969     52.673    86.279
7.07107     52.883    85.750
7.17392     53.108    85.215
7.27827     53.324    84.675
7.38413     53.515    84.121
7.49154     53.706    83.567
7.60050     53.903    82.997
7.71105     54.101    82.424
7.82321     54.304    81.840
7.93701     54.510    81.248
8.05245     54.718    80.649
8.16958     54.931    80.039
8.28841     55.146    79.423
8.40896     55.365    78.795
8.53128     55.574    78.161
8.65537     55.752    77.514
8.78126     55.930    76.861
8.90899     56.113    76.195
9.03857     56.313    75.523
9.17004     56.555    74.838
9.30342     56.778    74.146
9.43874     56.972    73.442
9.57603     57.170    72.728
9.71532     57.370    72.005
9.85663     57.575    71.269
10.0000     57.781    70.527
10.1455     57.993    69.767
10.2930     58.189    69.001
10.4427     58.346    68.222
10.5946     58.545    67.432
10.7487     58.768    66.634
10.9051     58.998    65.818
11.0637     59.203    64.994
11.2246     59.374    64.158
11.3879     59.548    63.308
11.5535     59.746    62.448
11.7216     59.993    61.575
11.8921     60.187    60.687
12.0650     60.372    59.788
12.2405     60.560    58.877
12.4186     60.753    57.949
12.5992     60.947    57.010
12.7825     61.145    56.059
12.9684     61.346    55.092
13.1570     61.550    54.110
13.3484     61.758    53.115
13.5426     61.969    52.106
13.7395     62.183    51.083
13.9394     62.401    50.042
14.1421     62.622    48.988
14.3478     62.808    47.918
14.5565     62.975    46.834
14.7683     63.207    45.734
14.9831     63.442    44.617
15.2010     63.602    43.482
15.4221     63.826    42.332
15.6464     64.014    41.165
15.8740     64.224    39.982
16.1049     64.437    38.782
16.3392     64.638    37.564
16.5768     64.870    36.328
16.8179     65.041    35.074
17.0626     65.214    33.802
17.3107     65.415    32.511
17.5625     65.670    31.202
17.8180     65.852    29.873
18.0771     66.038    28.526
18.3401     66.226    27.158
18.6068     66.417    25.771
18.8775     66.612    24.363
19.1521     66.870    22.935
19.4306     67.110    21.487
19.7133     67.314    20.017
20.0000     67.421    18.527
20.2909     67.648    17.021
20.5860     67.947    15.622
20.8855     68.162    14.139
21.1893     68.451    12.562
21.4975     68.627    10.887
21.8102     68.823     9.124
22.1274     69.001     7.343
22.4492     69.179     5.620
22.7758     69.390     4.040
23.1071     69.485     2.664
23.4432     69.676     1.423
23.7841     69.926     0.210
24.1301     70.203    -1.129
24.4811     70.306    -2.631
24.8372     70.651    -4.297
25.1984     70.878    -6.012
25.5649     71.051    -7.677
25.9368     71.191    -9.233
26.3141     71.325   -10.683
26.6968     71.478   -12.061
27.0851     71.667   -13.378
27.4791     71.891   -14.613
27.8788     72.051   -15.712
28.2843     72.213   -16.705
28.6957     72.377   -17.652
29.1131     72.644   -18.650
29.5365     72.828   -19.731
29.9661     73.086   -20.874
30.4020     73.319   -22.011
30.8442     73.459   -23.127
31.2929     73.733   -24.270
31.7480     73.998   -25.493
32.2098     74.267   -26.788
32.6783     74.494   -28.054
33.1536     74.707   -29.222
33.6359     74.853   -30.319
34.1251     75.099   -31.441
34.6215     75.402   -32.650
35.1250     75.558   -33.911
35.6359     75.822   -35.153
36.1543     76.033   -36.375
36.6802     76.259   -37.636
37.2137     76.523   -38.980
37.7550     76.801   -40.357
38.3041     76.999   -41.695
38.8613     77.155   -42.998
39.4265     77.404   -44.329
40.0000     77.622   -45.743
40.5818     77.850   -47.248
41.1721     78.011   -48.771
41.7710     78.201   -50.214
42.3785     78.323   -51.445
42.9949     78.499   -52.496
43.6203     78.699   -53.484
44.2548     78.901   -54.536
44.8985     79.099   -55.676
45.5515     79.358   -56.876
46.2141     79.585   -58.137
46.8863     79.799   -59.410
47.5683     79.999   -60.622
48.2602     80.277   -61.804
48.9621     80.399   -62.988
49.6743     80.569   -64.065
50.3968     80.758   -64.991
51.1299     80.951   -65.894
51.8736     81.148   -66.864
52.6281     81.350   -67.880
53.3936     81.679   -68.959
54.1702     81.867   -70.097
54.9581     82.082   -71.272
55.7575     82.402   -72.593
56.5685     82.626   -74.060
57.3914     82.856   -75.484
58.2261     83.099   -76.916
59.0730     83.328   -78.533
59.9323     83.599   -80.157
60.8040     83.821   -81.694
61.6884     83.999   -83.234
62.5857     84.199   -84.718
63.4960     84.436   -86.130
64.4196     84.567   -87.575
65.3566     84.788   -89.053
66.3073     85.022   -90.605
67.2717     85.177   -92.231
68.2502     85.399   -93.849
69.2429     85.599   -95.517
70.2501     85.816   -97.214
71.2719     86.099   -98.909
72.3086     86.244  -100.655
73.3603     86.499  -102.467
74.4274     86.775  -104.402
75.5099     86.822  -106.370
76.6083     87.018  -108.406
77.7226     87.199  -110.467
78.8531     87.299  -112.372
80.0000     87.454  -114.249
81.1636     87.599  -116.148
82.3442     87.699  -118.021
83.5419     87.799  -119.756
84.7570     87.955  -121.393
85.9899     88.080  -123.036
87.2406     88.099  -124.814
88.5096     88.303  -126.643
89.7970     88.420  -128.525
91.1031     88.582  -130.548
92.4282     88.738  -132.719
93.7726     88.799  -134.705
95.1366     88.866  -136.942
96.5204     88.976  -139.314
97.9243     89.099  -141.784
99.3486     88.999  -144.244
100.794     88.982  -146.311
102.260     88.999  -148.014
103.747     88.899  -149.393
105.256     88.899  -150.994
106.787     89.099  -152.892
108.340     89.083  -154.737
109.916     89.099  -156.577
111.515     89.156  -158.560
113.137     89.099  -160.565
114.783     89.085  -162.568
116.452     88.999  -164.466
118.146     88.899  -166.131
119.865     88.849  -167.668
121.608     88.770  -169.025
123.377     88.699  -170.400
125.171     88.593  -171.714
126.992     88.522  -172.999
128.839     88.580  -174.384
130.713     88.411  -175.771
132.615     88.381  -177.146
134.543     88.323  -178.732
136.500     88.278   179.626
138.486     88.323   178.033
140.500     88.172   176.181
142.544     87.953   174.486
144.617     87.777   173.258
146.721     87.585   172.259
148.855     87.382   171.417
151.020     87.221   170.734
153.217     87.063   169.955
155.445     87.012   168.973
157.706     86.808   167.916
160.000     86.557   167.046
162.327     86.310   166.656
164.688     86.140   166.999
167.084     86.006   167.777
169.514     85.970   168.439
171.980     86.002   168.644
174.481     86.075   168.219
177.019     86.067   167.422
179.594     85.962   166.905
182.206     85.974   166.658
184.856     85.997   166.302
187.545     86.000   165.561
190.273     86.001   164.578
193.041     86.032   163.822
195.849     85.990   163.131
198.697     85.953   162.431
201.587     85.933   161.977
204.520     85.982   161.481
207.494     86.017   160.666
210.512     86.076   159.537
213.574     85.954   158.355
216.681     85.985   157.179
219.833     85.904   156.203
223.030     85.892   155.552
226.274     85.840   154.841
229.565     85.797   154.020
232.905     85.769   153.226
236.292     85.677   152.515
239.729     85.688   151.958
243.216     85.718   151.514
246.754     85.660   151.141
250.343     85.704   150.624
253.984     85.755   149.886
257.678     85.754   149.082
261.426     85.743   148.431
265.229     85.844   147.758
269.087     85.898   147.061
273.001     85.876   146.520
276.972     85.963   145.933
281.000     85.967   145.188
285.088     86.099   144.311
289.234     86.098   143.390
293.441     86.191   142.474
297.709     86.272   141.559
302.040     86.299   140.649
306.433     86.299   139.741
310.890     86.299   138.857
315.412     86.300   138.000
320.000     86.337   137.111
324.655     86.399   136.243
329.377     86.397   135.397
334.168     86.399   134.494
339.028     86.399   133.572
343.959     86.399   132.613
348.962     86.491   131.607
354.038     86.499   130.548
359.188     86.499   129.396
364.412     86.499   128.155
369.713     86.499   126.876
375.090     86.499   125.578
380.546     86.499   124.240
386.081     86.413   122.928
391.697     86.349   121.623
397.394     86.243   120.348
403.175     86.132   119.194
409.039     86.023   118.101
414.989     85.943   117.079
421.025     85.840   116.166
427.149     85.699   115.358
433.362     85.552   114.658
439.665     85.421   114.033
446.060     85.317   113.531
452.548     85.216   113.155
459.131     85.066   112.901
465.809     84.941   112.773
472.584     84.821   112.759
479.458     84.799   112.831
486.432     84.720   112.950
493.507     84.699   113.068
500.686     84.599   113.139
507.968     84.599   113.125
515.357     84.599   113.019
522.853     84.599   112.835
530.458     84.528   112.612
538.174     84.409   112.415
546.002     84.304   112.303
553.943     84.222   112.320
562.001     84.158   112.487
570.175     84.099   112.782
578.469     84.099   113.133
586.883     84.099   113.429
595.419     84.173   113.569
604.080     84.241   113.475
612.866     84.320   113.110
621.780     84.399   112.484
630.824     84.435   111.655
640.000     84.491   110.733
649.309     84.399   109.819
658.753     84.372   108.990
668.335     84.273   108.312
678.056     84.164   107.862
687.919     84.053   107.642
697.925     83.955   107.615
708.077     83.899   107.695
718.376     83.899   107.760
728.825     83.899   107.681
739.426     83.899   107.361
750.181     83.899   106.777
761.093     83.822   106.006
772.163     83.666   105.230
783.394     83.512   104.652
794.789     83.271   104.471
806.349     82.996   104.788
818.078     82.757   105.546
829.977     82.552   106.549
842.050     82.408   107.596
854.298     82.269   108.598
866.724     82.140   109.613
879.330     81.999   110.841
892.120     81.862   112.584
905.097     81.735   115.083
918.262     81.699   117.638
931.618     81.718   119.693
945.169     81.799   121.071
958.917     81.746   121.822
972.864     81.617   122.230
987.015     81.366   122.791
1001.37     81.024   124.150
1015.94     80.699   126.768
1030.71     80.599   130.347
1045.71     80.787   133.754
1060.92     81.206   135.568
1076.35     81.635   135.286
1092.00     81.890   133.622
1107.89     81.994   131.671
1124.00     81.899   130.272
1140.35     81.899   129.449
1156.94     81.906   128.566
1173.77     81.999   127.175
1190.84     81.999   125.452
1208.16     81.999   123.797
1225.73     81.999   122.113
1243.56     82.050   119.784
1261.65     82.157   116.397
1280.00     82.137   112.250
1298.62     81.985   108.049
1317.51     81.782   104.168
1336.67     81.607   100.408
1356.11     81.461    96.324
1375.84     81.319    91.607
1395.85     81.115    86.211
1416.15     80.812    80.512
1436.75     80.310    75.545
1457.65     79.590    72.117
1478.85     78.896    70.936
1500.36     78.541    70.649
1522.19     78.499    68.398
1544.33     78.396    63.388
1566.79     77.925    57.157
1589.58     77.134    51.115
1612.70     76.078    45.708
1636.16     74.745    41.421
1659.95     73.097    39.377
1684.10     71.218    40.338
1708.60     69.200    44.280
1733.45     66.943    53.885
1758.66     65.462    74.285
1784.24     66.533    92.803
1810.19     67.541    98.402
1836.52     67.537   107.892
1863.24     69.413   123.293
1890.34     72.058   125.483
1917.83     73.395   120.390
1945.73     74.247   117.817
1974.03     75.217   114.114
2002.74     75.632   108.265
2031.87     75.661   105.785
2061.43     76.239   105.632
2091.41     77.110   102.457
2121.83     77.549    97.314
2152.69     77.763    94.010
2184.01     78.167    91.556
2215.77     78.482    87.443
2248.00     78.499    84.120
2280.70     78.691    82.238
2313.87     78.964    78.957
2347.53     79.106    76.549
2381.68     79.660    74.161
2416.32     80.076    68.191
2451.46     79.938    63.381
2487.12     79.959    61.068
2523.30     80.155    57.891
2560.00     80.216    53.845
2597.24     80.293    49.701
2635.01     80.124    45.881
2673.34     80.040    44.798
2712.23     80.453    42.964
2751.68     80.599    38.987
2791.70     80.683    37.182
2832.31     80.999    35.883
2873.50     81.637    34.106
2915.30     82.372    29.855
2957.70     82.912    23.801
3000.72     83.262    18.412
3044.37     83.703    12.836
3088.65     84.089     6.736
3133.58     84.619     0.223
3179.16     85.094    -8.350
3225.40     85.160   -17.705
3272.31     85.184   -25.788
3319.91     85.199   -33.660
3368.20     85.199   -41.894
3417.19     85.046   -51.263
3466.89     84.569   -59.928
3517.32     83.963   -66.247
3568.48     83.478   -70.506
3620.39     83.316   -74.803
3673.05     83.233   -79.778
3726.47     83.208   -84.212
3780.67     83.353   -89.846
3835.67     83.399   -96.441
3891.46     83.394  -103.040
3948.06     83.280  -110.190
4005.49     82.977  -116.968
4063.75     82.709  -121.764
4122.86     82.587  -125.923
4182.82     82.534  -129.606
4243.66     82.976  -132.249
4305.39     83.737  -137.171
4368.01     84.450  -145.008
4431.55     84.983  -154.274
4496.01     85.407  -164.249
4561.40     85.731  -174.727
4627.75     85.898   174.235
4695.06     85.974   162.876
4763.35     85.835   151.294
4832.64     85.565   140.423
4902.93     85.277   129.936
4974.24     84.780   120.023
5046.60     84.416   111.697
5120.00     84.107   102.148
5194.47     83.458    93.265
5270.03     83.088    86.793
5346.68     82.824    78.585
5424.45     82.252    72.152
5503.35     82.138    67.498
5583.40     82.258    61.133
5664.61     82.482    54.454
5747.01     82.885    45.544
5830.60     83.099    34.908
5915.41     83.123    24.405
6001.45     83.335    13.410
6088.74     83.360     0.185
6177.30     83.019   -13.194
6267.15     82.585   -26.299
6358.31     81.798   -38.684
6450.80     80.913   -48.223
6544.62     80.181   -57.175
6639.82     79.551   -64.092
6736.40     79.169   -71.694
6834.38     78.802   -79.136
6933.79     78.641   -86.652
7034.64     78.761   -94.864
7136.96     78.722  -104.852
7240.77     78.740  -114.571
7346.09     78.799  -125.638
7452.94     78.775  -137.852
7561.35     78.580  -151.453
7671.33     78.031  -164.888
7782.91     77.320  -177.636
7896.12     76.281   171.477
8010.97     75.358   163.505
8127.49     74.563   156.705
8245.71     74.260   151.324
8365.65     74.204   144.846
8487.33     74.370   137.445
8610.78     74.648   129.171
8736.03     75.115   118.668
8863.09     75.216   106.478
8992.01     75.347    95.262
9122.80     75.386    84.023
9255.50     75.561    71.818
9390.12     75.471    59.433
9526.70     75.564    47.832
9665.27     75.671    35.751
9805.86     75.816    21.986
9948.49     75.864     7.657
10093.2     75.665    -6.771
10240.0     75.323   -21.175
10388.9     74.850   -33.582
10540.1     74.700   -44.499
10693.4     74.890   -56.753
10848.9     74.987   -72.044
11006.7     74.770   -87.140
11166.8     74.599  -100.759
11329.2     74.599  -115.445
11494.0     74.475  -130.567
11661.2     74.246  -145.318
11830.8     74.102  -159.218
12002.9     74.243  -172.202
12177.5     74.768   171.261
12354.6     74.909   150.886
12534.3     74.490   130.833
12716.6     73.860   112.937
12901.6     73.370    95.752
13089.2     72.960    78.095
13279.6     72.471    60.115
13472.8     71.994    42.811
13668.8     71.604    24.514
13867.6     70.921     5.088
14069.3     69.958   -12.534
14273.9     69.001   -27.752
14481.5     68.192   -41.884
14692.2     67.531   -54.503
14905.9     67.256   -65.142
15122.7     67.819   -77.175
15342.7     68.583   -93.540
15565.8     69.186  -112.836
15792.2     69.541  -132.537
16021.9     69.919  -151.750
16255.0     70.465  -172.837
16491.4     71.000   164.242
16731.3     71.335   139.894
16974.7     71.399   114.293
17221.6     71.261    88.061
17472.1     70.729    63.396
17726.2     70.250    40.649
17984.0     69.971    17.653
18245.6     69.714    -5.818
18511.0     69.543   -30.362
18780.2     69.262   -55.801
19053.4     68.903   -81.493
19330.5     68.677  -108.159
19611.7     68.296  -136.375
19897.0     67.688  -160.705
20186.4     67.530  -178.895
20480.0     67.372   162.915
20777.9     67.214   144.727
21080.1     67.055   126.536
21386.7     66.897   108.346
21697.8     66.739    90.159
22013.4     66.580    71.970
22333.6     66.422    53.781
22658.4     66.264    35.589
22988.0     66.105    17.402
23322.4     65.947    -0.786
23661.6     65.789   -18.976
24005.8     65.631   -37.163
24355.0     65.472   -55.351
24709.2     65.314   -73.544
25068.6     65.156   -91.733
25433.2     64.997  -109.923
25803.2     64.839  -128.109
26178.5     64.681  -146.299
26559.3     64.523  -164.487
26945.6     64.364   177.324
27337.5     64.206   159.133
27735.2     64.048   140.947
28138.6     63.889   122.757
28547.9     63.731   104.569
28963.1     63.573    86.378
29384.4     63.414    68.190
29811.8     63.256    50.001
30245.4     63.098    31.811
30685.3     62.940    13.621
31131.7     62.781    -4.565
31584.5     62.623   -22.755
32043.9     62.465   -40.944
32510.0     62.306   -59.133
32982.8     62.148   -77.325
33462.6     61.990   -95.512
33949.3     61.831  -113.701
34443.1     61.673  -131.891
34944.1     61.515  -150.079
35452.4     61.357  -168.267
35968.0     61.198   173.541
36491.2     61.040   155.354
37022.0     60.882   137.165
37560.5     60.723   118.976
38106.8     60.565   100.786
38661.1     60.407    82.598
39223.4     60.249    64.408
39793.9     60.090    46.218
