Freq[Hz]     dBSPL  Phase[Deg]
5.00000     44.234    57.404
5.07273     44.490    57.118
5.14651     44.747    56.833
5.22137     45.003    56.548
5.29732     45.247    56.253
5.37437     45.484    55.954
5.45254     45.721    55.655
5.53185     45.962    55.350
5.61231     46.209    55.036
5.69394     46.456    54.723
5.77676     46.707    54.406
5.86079     46.964    54.078
5.94604     47.221    53.751
6.03252     47.469    53.419
6.12027     47.701    53.078
6.20929     47.933    52.737
6.29961     48.169    52.388
6.39124     48.410    52.033
6.48420     48.650    51.678
6.57851     48.898    51.311
6.67420     49.147    50.942
6.77128     49.390    50.571
6.86977     49.608    50.188
6.96969     49.826    49.805
7.07107     50.078    49.412
7.17392     50.345    49.015
7.27827     50.602    48.615
7.38413     50.835    48.204
7.49154     51.067    47.793
7.60050     51.307    47.369
7.71105     51.547    46.945
7.82321     51.791    46.511
7.93701     52.038    46.072
8.05245     52.289    45.628
8.16958     52.543    45.175
8.28841     52.799    44.719
8.40896     53.061    44.252
8.53128     53.312    43.782
8.65537     53.531    43.301
8.78126     53.751    42.818
8.90899     53.976    42.323
9.03857     54.218    41.825
9.17004     54.501    41.316
9.30342     54.765    40.803
9.43874     55.001    40.281
9.57603     55.241    39.751
9.71532     55.483    39.215
9.85663     55.729    38.668
10.0000     55.977    38.118
10.1455     56.231    37.554
10.2930     56.469    36.986
10.4427     56.668    36.408
10.5946     56.908    35.821
10.7487     57.173    35.230
10.9051     57.444    34.624
11.0637     57.692    34.013
11.2246     57.904    33.393
11.3879     58.120    32.761
11.5535     58.360    32.123
11.7216     58.648    31.476
11.8921     58.884    30.817
12.0650     59.111    30.150
12.2405     59.341    29.475
12.4186     59.575    28.785
12.5992     59.811    28.088
12.7825     60.050    27.383
12.9684     60.293    26.666
13.1570     60.540    25.937
13.3484     60.789    25.198
13.5426     61.041    24.450
13.7395     61.297    23.691
13.9394     61.557    22.919
14.1421     61.820    22.136
14.3478     62.047    21.343
14.5565     62.256    20.538
14.7683     62.530    19.722
14.9831     62.807    18.893
15.2010     63.008    18.051
15.4221     63.274    17.198
15.6464     63.504    16.332
15.8740     63.755    15.454
16.1049     64.010    14.563
16.3392     64.253    13.659
16.5768     64.527    12.743
16.8179     64.739    11.812
17.0626     64.954    10.868
17.3107     65.197     9.910
17.5625     65.494     8.938
17.8180     65.718     7.953
18.0771     65.945     6.953
18.3401     66.175     5.938
18.6068     66.408     4.909
18.8775     66.644     3.864
19.1521     66.944     2.805
19.4306     67.226     1.729
19.7133     67.471     0.639
20.0000     67.620    -0.467
20.2909     67.889    -1.582
20.5860     68.290    -2.659
20.8855     68.662    -3.787
21.1893     68.951    -4.996
21.4975     69.197    -6.294
21.8102     69.423    -7.674
22.1274     69.644    -9.064
22.4492     69.879   -10.391
22.7758     70.109   -11.569
23.1071     70.285   -12.540
23.4432     70.476   -13.371
23.7841     70.726   -14.172
24.1301     71.003   -15.096
24.4811     71.191   -16.182
24.8372     71.551   -17.432
25.1984     71.859   -18.731
25.5649     72.051   -19.979
25.9368     72.274   -21.121
26.3141     72.425   -22.158
26.6968     72.578   -23.124
27.0851     72.767   -24.033
27.4791     72.894   -24.863
27.8788     73.151   -25.561
28.2843     73.313   -26.155
28.6957     73.477   -26.708
29.1131     73.744   -27.316
29.5365     73.994   -28.012
29.9661     74.286   -28.774
30.4020     74.421   -29.536
30.8442     74.659   -30.281
31.2929     74.933   -31.059
31.7480     75.129   -31.922
32.2098     75.462   -32.862
32.6783     75.670   -33.778
33.1536     75.861   -34.602
33.6359     75.969   -35.361
34.1251     76.299   -36.149
34.6215     76.548   -37.030
35.1250     76.749   -37.968
35.6359     76.953   -38.894
36.1543     77.161   -39.803
36.6802     77.443   -40.758
37.2137     77.623   -41.799
37.7550     77.901   -42.880
38.3041     78.099   -43.926
38.8613     78.244   -44.942
39.4265     78.470   -45.992
40.0000     78.699   -47.128
40.5818     78.932   -48.360
41.1721     79.068   -49.615
41.7710     79.207   -50.793
42.3785     79.350   -51.764
42.9949     79.499   -52.560
43.6203     79.699   -53.296
44.2548     79.901   -54.101
44.8985     80.099   -54.997
45.5515     80.320   -55.957
46.2141     80.485   -56.982
46.8863     80.699   -58.022
47.5683     80.899   -59.005
48.2602     81.099   -59.961
48.9621     81.199   -60.922
49.6743     81.369   -61.779
50.3968     81.558   -62.489
51.1299     81.751   -63.179
51.8736     81.948   -63.938
52.6281     82.150   -64.746
53.3936     82.379   -65.620
54.1702     82.667   -66.557
54.9581     82.875   -67.532
55.7575     83.102   -68.656
56.5685     83.326   -69.929
57.3914     83.556   -71.161
58.2261     83.799   -72.404
59.0730     84.028   -73.833
59.9323     84.199   -75.272
60.8040     84.421   -76.626
61.6884     84.599   -77.985
62.5857     84.799   -79.291
63.4960     84.997   -80.527
64.4196     85.167   -81.796
65.3566     85.342   -83.102
66.3073     85.522   -84.484
67.2717     85.677   -85.940
68.2502     85.862   -87.391
69.2429     86.007   -88.894
70.2501     86.299   -90.426
71.2719     86.499   -91.959
72.3086     86.644   -93.543
73.3603     86.899   -95.196
74.4274     87.099   -96.973
75.5099     87.122   -98.783
76.6083     87.399  -100.664
77.7226     87.499  -102.570
78.8531     87.531  -104.321
80.0000     87.699  -106.045
81.1636     87.799  -107.792
82.3442     87.899  -109.514
83.5419     87.999  -111.098
84.7570     88.099  -112.586
85.9899     88.199  -114.079
87.2406     88.299  -115.707
88.5096     88.403  -117.387
89.7970     88.599  -119.119
91.1031     88.682  -120.993
92.4282     88.799  -123.013
93.7726     88.899  -124.848
95.1366     88.966  -126.934
96.5204     89.019  -129.153
97.9243     89.099  -131.470
99.3486     88.999  -133.774
100.794     88.982  -135.685
102.260     88.899  -137.229
103.747     88.899  -138.447
105.256     88.899  -139.885
106.787     88.999  -141.617
108.340     89.083  -143.292
109.916     88.999  -144.961
111.515     89.056  -146.769
113.137     89.005  -148.596
114.783     89.041  -150.418
116.452     88.900  -152.130
118.146     88.837  -153.607
119.865     88.749  -154.952
121.608     88.770  -156.116
123.377     88.609  -157.295
125.171     88.593  -158.412
126.992     88.522  -159.500
128.839     88.580  -160.691
130.713     88.418  -161.887
132.615     88.481  -163.078
134.543     88.423  -164.488
136.500     88.438  -165.965
138.486     88.503  -167.428
140.500     88.406  -169.161
142.544     88.237  -170.758
144.617     88.117  -171.930
146.721     87.969  -172.910
148.855     87.832  -173.771
151.020     87.754  -174.515
153.217     87.613  -175.395
155.445     87.646  -176.513
157.706     87.508  -177.733
160.000     87.257  -178.800
162.327     87.060  -179.397
164.688     86.906  -179.245
167.084     86.820  -178.663
169.514     86.798  -178.190
171.980     86.845  -178.145
174.481     86.942  -178.688
177.019     86.939  -179.571
179.594     86.847   179.851
182.206     86.874   179.578
184.856     86.897   179.229
187.545     86.915   178.522
190.273     86.939   177.600
193.041     86.990   176.924
195.849     86.940   176.327
198.697     86.940   175.738
201.587     86.933   175.401
204.520     86.982   175.022
207.494     87.017   174.319
210.512     87.132   173.301
213.574     87.154   172.217
216.681     87.135   171.119
219.833     87.104   170.206
223.030     87.081   169.603
226.274     87.074   168.918
229.565     87.019   168.106
232.905     87.013   167.305
236.292     86.977   166.578
239.729     86.908   165.999
243.216     86.918   165.540
246.754     86.950   165.163
250.343     86.924   164.664
253.984     86.955   163.972
257.678     86.954   163.244
261.426     86.943   162.705
265.229     86.984   162.170
269.087     87.007   161.629
273.001     86.966   161.252
276.972     87.026   160.828
281.000     87.067   160.238
285.088     87.099   159.500
289.234     87.134   158.684
293.441     87.199   157.840
297.709     87.254   156.966
302.040     87.216   156.073
306.433     87.199   155.173
310.890     87.191   154.304
315.412     87.100   153.496
320.000     87.099   152.717
324.655     87.082   152.044
329.377     86.997   151.501
334.168     86.921   151.063
339.028     86.868   150.750
343.959     86.799   150.537
348.962     86.799   150.388
354.038     86.899   150.264
359.188     86.899   150.118
364.412     86.899   149.911
369.713     86.899   149.619
375.090     86.972   149.226
380.546     87.046   148.720
386.081     87.099   148.133
391.697     87.099   147.472
397.394     87.099   146.777
403.175     87.099   146.129
409.039     87.099   145.531
414.989     87.099   145.018
421.025     87.099   144.628
427.149     87.099   144.359
433.362     87.099   144.196
439.665     87.099   144.107
446.060     87.123   144.064
452.548     87.199   144.025
459.131     87.210   143.957
465.809     87.299   143.832
472.584     87.360   143.638
479.458     87.478   143.368
486.432     87.599   143.011
493.507     87.699   142.555
500.686     87.789   141.989
507.968     87.874   141.317
515.357     87.959   140.537
522.853     88.075   139.638
530.458     88.099   138.643
538.174     88.099   137.617
546.002     88.099   136.617
553.943     88.067   135.681
562.001     87.999   134.861
570.175     87.964   134.195
578.469     87.899   133.684
586.883     87.899   133.308
595.419     87.799   133.009
604.080     87.799   132.724
612.866     87.799   132.410
621.780     87.799   132.045
630.824     87.871   131.617
640.000     87.899   131.135
649.309     87.899   130.595
658.753     87.899   129.990
668.335     87.847   129.331
678.056     87.799   128.709
687.919     87.728   128.218
697.925     87.647   127.971
708.077     87.599   128.023
718.376     87.599   128.293
728.825     87.696   128.568
739.426     87.765   128.574
750.181     87.936   128.119
761.093     87.999   127.220
772.163     87.999   126.124
783.394     87.989   125.157
794.789     87.862   124.600
806.349     87.734   124.542
818.078     87.654   124.768
829.977     87.599   124.920
842.050     87.599   124.749
854.298     87.599   124.289
866.724     87.487   123.801
879.330     87.350   123.569
892.120     87.176   123.964
905.097     86.974   125.282
918.262     86.824   126.996
931.618     86.729   128.802
945.169     86.699   130.605
958.917     86.754   132.145
972.864     86.852   133.064
987.015     86.899   133.228
1001.37     86.899   132.938
1015.94     86.829   132.743
1030.71     86.717   132.926
1045.71     86.699   133.201
1060.92     86.699   133.026
1076.35     86.654   132.297
1092.00     86.550   131.438
1107.89     86.426   130.787
1124.00     86.308   130.209
1140.35     86.166   129.494
1156.94     85.984   129.031
1173.77     85.819   129.476
1190.84     85.863   130.393
1208.16     86.110   130.303
1225.73     86.295   128.652
1243.56     86.399   126.551
1261.65     86.499   124.914
1280.00     86.775   122.816
1298.62     87.054   119.069
1317.51     87.099   114.305
1336.67     87.029   110.115
1356.11     86.999   106.597
1375.84     86.994   102.424
1395.85     86.837    97.765
1416.15     86.629    94.535
1436.75     86.608    93.045
1457.65     86.751    90.950
1478.85     86.799    87.994
1500.36     86.811    85.652
1522.19     86.972    83.465
1544.33     87.166    80.151
1566.79     87.199    76.275
1589.58     87.199    72.704
1612.70     87.199    69.194
1636.16     87.199    65.943
1659.95     87.199    63.237
1684.10     87.199    60.213
1708.60     87.130    56.926
1733.45     87.099    54.248
1758.66     87.099    51.494
1784.24     87.099    48.424
1810.19     87.062    45.525
1836.52     86.973    42.276
1863.24     86.844    39.566
1890.34     86.908    37.572
1917.83     87.038    34.165
1945.73     86.999    30.739
1974.03     87.045    28.116
2002.74     87.167    23.827
2031.87     87.014    19.443
2061.43     86.876    15.646
2091.41     86.605    11.309
2121.83     86.101     8.447
2152.69     85.675     6.891
2184.01     85.408     6.930
2215.77     85.474     6.349
2248.00     85.380     4.080
2280.70     85.235     3.486
2313.87     85.277     1.635
2347.53     85.021    -0.431
2381.68     84.655    -0.434
2416.32     84.628     1.846
2451.46     85.057     1.987
2487.12     85.320     0.901
2523.30     85.701    -1.149
2560.00     85.716    -4.435
2597.24     85.657    -6.584
2635.01     85.580    -6.536
2673.34     86.057    -7.325
2712.23     86.236   -10.353
2751.68     86.479   -13.727
2791.70     86.198   -17.630
2832.31     85.980   -18.410
2873.50     85.849   -18.112
2915.30     86.262   -18.234
2957.70     86.399   -21.038
3000.72     86.463   -23.349
3044.37     86.228   -25.486
3088.65     86.067   -25.187
3133.58     86.349   -24.364
3179.16     86.785   -26.150
3225.40     86.899   -29.122
3272.31     86.961   -31.353
3319.91     86.972   -32.708
3368.20     87.273   -34.813
3417.19     87.299   -38.621
3466.89     87.165   -41.911
3517.32     86.896   -43.853
3568.48     86.562   -44.354
3620.39     86.598   -44.555
3673.05     86.599   -45.510
3726.47     86.574   -47.002
3780.67     86.392   -48.239
3835.67     86.358   -47.761
3891.46     86.415   -49.089
3948.06     86.240   -49.946
4005.49     86.099   -49.599
4063.75     86.228   -48.883
4122.86     86.329   -50.021
4182.82     86.372   -50.313
4243.66     86.347   -51.084
4305.39     86.461   -51.487
4368.01     86.459   -52.611
4431.55     86.399   -53.725
4496.01     86.385   -54.228
4561.40     86.446   -55.698
4627.75     86.314   -57.406
4695.06     85.961   -58.327
4763.35     85.596   -57.845
4832.64     85.337   -56.285
4902.93     85.205   -54.445
4974.24     85.126   -51.190
5046.60     85.535   -48.228
5120.00     85.955   -47.835
5194.47     86.293   -47.532
5270.03     86.753   -48.642
5346.68     87.009   -50.926
5424.45     87.149   -53.564
5503.35     87.079   -56.658
5583.40     86.800   -59.413
5664.61     86.212   -60.764
5747.01     85.606   -58.926
5830.60     85.399   -55.286
5915.41     85.526   -52.268
6001.45     85.836   -51.379
6088.74     85.999   -51.752
6177.30     86.051   -52.069
6267.15     86.049   -52.746
6358.31     85.937   -52.581
6450.80     85.834   -52.075
6544.62     85.683   -50.823
6639.82     85.530   -48.634
6736.40     85.733   -44.913
6834.38     86.157   -42.621
6933.79     86.755   -41.641
7034.64     87.271   -42.403
7136.96     87.736   -44.063
7240.77     88.046   -46.562
7346.09     88.199   -49.701
7452.94     88.097   -52.547
7561.35     87.868   -54.742
7671.33     87.475   -55.681
7782.91     87.115   -54.929
7896.12     86.835   -52.932
8010.97     86.926   -50.862
8127.49     87.092   -50.035
8245.71     87.403   -50.386
8365.65     87.399   -51.820
8487.33     87.329   -53.292
8610.78     87.018   -54.032
8736.03     86.719   -53.598
8863.09     86.414   -51.920
8992.01     86.264   -49.829
9122.80     86.219   -47.399
9255.50     86.299   -45.286
9390.12     86.345   -42.771
9526.70     86.583   -41.060
9665.27     86.806   -39.888
9805.86     86.988   -39.240
9948.49     87.217   -38.953
10093.2     87.352   -39.504
10240.0     87.322   -41.022
10388.9     87.053   -42.199
10540.1     86.575   -42.515
10693.4     85.991   -41.348
10848.9     85.453   -37.976
11006.7     85.139   -33.180
11166.8     85.211   -28.970
11329.2     85.351   -26.331
11494.0     85.391   -25.265
11661.2     85.142   -24.421
11830.8     84.662   -21.440
12002.9     84.323   -15.675
12177.5     84.443    -9.171
12354.6     84.883    -4.980
12534.3     85.160    -2.682
12716.6     85.255     0.111
12901.6     85.464     3.286
13089.2     85.756     5.301
13279.6     85.899     6.918
13472.8     86.003     9.699
13668.8     86.400    12.897
13867.6     87.023    14.269
14069.3     87.530    13.554
14273.9     87.825    12.337
14481.5     87.987    11.087
14692.2     87.999     9.607
14905.9     87.930     8.918
15122.7     87.923     9.400
15342.7     88.097     8.836
15565.8     88.147     6.337
15792.2     87.802     4.087
16021.9     87.261     3.732
16255.0     86.743     5.021
16491.4     86.311     7.786
16731.3     86.166    11.324
16974.7     86.199    13.555
17221.6     86.084    14.196
17472.1     85.673    15.463
17726.2     85.216    18.540
17984.0     84.858    22.739
18245.6     84.654    26.947
18511.0     84.593    30.397
18780.2     84.453    33.124
19053.4     84.244    36.262
19330.5     84.135    39.376
19611.7     83.916    41.353
19897.0     83.652    42.913
20186.4     83.635    44.512
20480.0     83.619    46.110
20777.9     83.602    47.709
21080.1     83.586    49.308
21386.7     83.569    50.907
21697.8     83.552    52.506
22013.4     83.536    54.105
22333.6     83.519    55.703
22658.4     83.502    57.302
22988.0     83.486    58.901
23322.4     83.469    60.500
23661.6     83.453    62.099
24005.8     83.436    63.697
24355.0     83.419    65.296
24709.2     83.403    66.895
25068.6     83.386    68.494
25433.2     83.369    70.093
25803.2     83.353    71.692
26178.5     83.336    73.290
26559.3     83.320    74.889
26945.6     83.303    76.488
27337.5     83.286    78.087
27735.2     83.270    79.686
28138.6     83.253    81.284
28547.9     83.236    82.883
28963.1     83.220    84.482
29384.4     83.203    86.081
29811.8     83.187    87.680
30245.4     83.170    89.279
30685.3     83.153    90.877
31131.7     83.137    92.476
31584.5     83.120    94.075
32043.9     83.103    95.674
32510.0     83.087    97.273
32982.8     83.070    98.871
33462.6     83.054   100.470
33949.3     83.037   102.069
34443.1     83.020   103.668
34944.1     83.004   105.267
35452.4     82.987   106.866
35968.0     82.970   108.464
36491.2     82.954   110.063
37022.0     82.937   111.662
37560.5     82.921   113.261
38106.8     82.904   114.860
38661.1     82.887   116.458
39223.4     82.871   118.057
39793.9     82.854   119.656
