Freq[Hz]     dBSPL  Phase[Deg]
5.00000     47.259    -6.913
5.07273     47.487    -7.052
5.14651     47.715    -7.189
5.22137     47.943    -7.322
5.29732     48.159    -7.463
5.37437     48.367    -7.607
5.45254     48.575    -7.749
5.53185     48.788    -7.893
5.61231     49.006    -8.045
5.69394     49.225    -8.193
5.77676     49.447    -8.343
5.86079     49.675    -8.501
5.94604     49.904    -8.656
6.03252     50.123    -8.814
6.12027     50.327    -8.978
6.20929     50.530    -9.139
6.29961     50.738    -9.305
6.39124     50.950    -9.476
6.48420     51.162    -9.643
6.57851     51.382    -9.819
6.67420     51.602    -9.995
6.77128     51.816   -10.171
6.86977     52.006   -10.355
6.96969     52.195   -10.536
7.07107     52.419   -10.724
7.17392     52.657   -10.913
7.27827     52.886   -11.103
7.38413     53.090   -11.301
7.49154     53.294   -11.494
7.60050     53.505   -11.698
7.71105     53.716   -11.899
7.82321     53.932   -12.107
7.93701     54.151   -12.316
8.05245     54.373   -12.527
8.16958     54.598   -12.743
8.28841     54.827   -12.960
8.40896     55.060   -13.184
8.53128     55.282   -13.407
8.65537     55.472   -13.637
8.78126     55.664   -13.866
8.90899     55.860   -14.103
9.03857     56.074   -14.340
9.17004     56.328   -14.583
9.30342     56.564   -14.827
9.43874     56.772   -15.076
9.57603     56.983   -15.329
9.71532     57.196   -15.584
9.85663     57.414   -15.845
10.0000     57.633   -16.105
10.1455     57.859   -16.376
10.2930     58.068   -16.646
10.4427     58.239   -16.922
10.5946     58.451   -17.202
10.7487     58.687   -17.483
10.9051     58.929   -17.773
11.0637     59.148   -18.064
11.2246     59.332   -18.359
11.3879     59.520   -18.661
11.5535     59.731   -18.964
11.7216     59.991   -19.272
11.8921     60.198   -19.588
12.0650     60.397   -19.905
12.2405     60.598   -20.226
12.4186     60.803   -20.556
12.5992     61.011   -20.889
12.7825     61.222   -21.224
12.9684     61.436   -21.566
13.1570     61.654   -21.914
13.3484     61.875   -22.266
13.5426     62.099   -22.622
13.7395     62.326   -22.984
13.9394     62.557   -23.353
14.1421     62.792   -23.726
14.3478     62.990   -24.104
14.5565     63.171   -24.488
14.7683     63.416   -24.876
14.9831     63.665   -25.272
15.2010     63.837   -25.674
15.4221     64.075   -26.081
15.6464     64.276   -26.494
15.8740     64.499   -26.913
16.1049     64.725   -27.337
16.3392     64.940   -27.768
16.5768     65.185   -28.205
16.8179     65.369   -28.649
17.0626     65.556   -29.099
17.3107     65.770   -29.556
17.5625     66.038   -30.019
17.8180     66.233   -30.489
18.0771     66.432   -30.966
18.3401     66.633   -31.450
18.6068     66.838   -31.941
18.8775     67.046   -32.439
19.1521     67.317   -32.944
19.4306     67.570   -33.457
19.7133     67.788   -33.977
20.0000     67.908   -34.504
20.2909     68.148   -35.033
20.5860     68.468   -35.455
20.8855     68.762   -35.892
21.1893     69.051   -36.424
21.4975     69.297   -37.061
21.8102     69.523   -37.795
22.1274     69.701   -38.556
22.4492     69.879   -39.269
22.7758     70.109   -39.849
23.1071     70.275   -40.238
23.4432     70.376   -40.504
23.7841     70.626   -40.757
24.1301     70.903   -41.149
24.4811     71.091   -41.720
24.8372     71.369   -42.470
25.1984     71.578   -43.284
25.5649     71.751   -44.064
25.9368     71.891   -44.753
26.3141     72.025   -45.353
26.6968     72.178   -45.897
27.0851     72.271   -46.399
27.4791     72.491   -46.837
27.8788     72.651   -47.158
28.2843     72.813   -47.391
28.6957     72.941   -47.596
29.1131     73.144   -47.870
29.5365     73.328   -48.246
29.9661     73.586   -48.703
30.4020     73.721   -49.171
30.8442     73.937   -49.638
31.2929     74.088   -50.151
31.7480     74.298   -50.761
32.2098     74.567   -51.460
32.6783     74.770   -52.150
33.1536     74.907   -52.758
33.6359     75.053   -53.314
34.1251     75.281   -53.911
34.6215     75.502   -54.613
35.1250     75.658   -55.381
35.6359     75.822   -56.150
36.1543     76.033   -56.914
36.6802     76.243   -57.732
37.2137     76.423   -58.649
37.7550     76.701   -59.615
38.3041     76.839   -60.556
38.8613     76.944   -61.477
39.4265     77.104   -62.442
40.0000     77.399   -63.503
40.5818     77.550   -64.669
41.1721     77.668   -65.867
41.7710     77.801   -66.997
42.3785     77.850   -67.929
42.9949     77.999   -68.694
43.6203     78.188   -69.408
44.2548     78.301   -70.200
44.8985     78.499   -71.090
45.5515     78.720   -72.053
46.2141     78.885   -73.088
46.8863     79.099   -74.146
47.5683     79.299   -75.154
48.2602     79.499   -76.144
48.9621     79.599   -77.145
49.6743     79.704   -78.050
50.3968     79.858   -78.815
51.1299     80.051   -79.566
51.8736     80.183   -80.394
52.6281     80.350   -81.278
53.3936     80.679   -82.234
54.1702     80.867   -83.259
54.9581     81.075   -84.330
55.7575     81.302   -85.556
56.5685     81.479   -86.936
57.3914     81.756   -88.283
58.2261     81.899   -89.646
59.0730     82.128   -91.202
59.9323     82.333   -92.775
60.8040     82.617   -94.267
61.6884     82.699   -95.772
62.5857     82.899   -97.228
63.4960     83.097   -98.621
64.4196     83.176  -100.053
65.3566     83.388  -101.528
66.3073     83.622  -103.084
67.2717     83.777  -104.722
68.2502     83.962  -106.359
69.2429     84.099  -108.054
70.2501     84.316  -109.786
71.2719     84.561  -111.523
72.3086     84.744  -113.318
73.3603     84.967  -115.187
74.4274     85.175  -117.187
75.5099     85.203  -119.226
76.6083     85.399  -121.342
77.7226     85.499  -123.490
78.8531     85.599  -125.489
80.0000     85.754  -127.468
81.1636     85.899  -129.476
82.3442     85.984  -131.465
83.5419     85.999  -133.325
84.7570     86.155  -135.095
85.9899     86.299  -136.877
87.2406     86.299  -138.802
88.5096     86.503  -140.786
89.7970     86.599  -142.830
91.1031     86.782  -145.025
92.4282     86.899  -147.375
93.7726     86.905  -149.547
95.1366     87.066  -151.980
96.5204     87.119  -154.556
97.9243     87.199  -157.239
99.3486     87.099  -159.920
100.794     87.082  -162.218
102.260     87.099  -164.161
103.747     87.069  -165.790
105.256     86.999  -167.651
106.787     87.199  -169.820
108.340     87.183  -171.946
109.916     87.199  -174.079
111.515     87.256  -176.367
113.137     87.199  -178.691
114.783     87.241   178.973
116.452     87.100   176.728
118.146     87.037   174.699
119.865     86.949   172.782
121.608     86.970   171.025
123.377     86.899   169.229
125.171     86.793   167.473
126.992     86.799   165.721
128.839     86.780   163.841
130.713     86.618   161.931
132.615     86.681   160.001
134.543     86.606   157.809
136.500     86.618   155.524
138.486     86.643   153.316
140.500     86.522   150.758
142.544     86.303   148.259
144.617     86.157   146.266
146.721     85.952   144.475
148.855     85.748   142.748
151.020     85.588   141.165
153.217     85.397   139.481
155.445     85.312   137.599
157.706     85.092   135.656
160.000     84.757   133.857
162.327     84.510   132.576
164.688     84.240   132.139
167.084     84.048   132.121
169.514     83.927   131.984
171.980     83.888   131.446
174.481     83.925   130.378
177.019     83.810   128.978
179.594     83.676   127.848
182.206     83.574   126.979
184.856     83.540   126.027
187.545     83.472   124.749
190.273     83.401   123.204
193.041     83.332   121.897
195.849     83.202   120.661
198.697     83.140   119.387
201.587     82.971   118.366
204.520     82.957   117.311
207.494     82.892   115.950
210.512     82.820   114.260
213.574     82.667   112.545
216.681     82.535   110.900
219.833     82.337   109.472
223.030     82.158   108.409
226.274     81.962   107.368
229.565     81.763   106.315
232.905     81.580   105.399
236.292     81.343   104.685
239.729     81.168   104.257
243.216     81.040   104.067
246.754     80.900   104.058
250.343     80.794   104.007
253.984     80.745   103.778
257.678     80.654   103.477
261.426     80.643   103.295
265.229     80.704   102.992
269.087     80.716   102.529
273.001     80.766   102.079
276.972     80.772   101.434
281.000     80.867   100.483
285.088     80.899    99.256
289.234     80.898    97.881
293.441     80.991    96.442
297.709     80.999    94.976
302.040     80.916    93.525
306.433     80.832    92.105
310.890     80.730    90.786
315.412     80.608    89.629
320.000     80.499    88.604
324.655     80.432    87.770
329.377     80.321    87.123
334.168     80.228    86.590
339.028     80.199    86.143
343.959     80.199    85.702
348.962     80.222    85.190
354.038     80.299    84.538
359.188     80.370    83.674
364.412     80.432    82.557
369.713     80.499    81.225
375.090     80.566    79.706
380.546     80.639    77.994
386.081     80.699    76.202
391.697     80.699    74.335
397.394     80.599    72.462
403.175     80.539    70.754
409.039     80.458    69.154
414.989     80.399    67.699
421.025     80.328    66.452
427.149     80.230    65.392
433.362     80.158    64.485
439.665     80.099    63.634
446.060     80.134    62.832
452.548     80.199    62.018
459.131     80.199    61.117
465.809     80.231    60.088
472.584     80.299    58.939
479.458     80.410    57.669
486.432     80.499    56.254
493.507     80.569    54.706
500.686     80.599    53.044
507.968     80.624    51.335
515.357     80.699    49.600
522.853     80.756    47.812
530.458     80.785    45.984
538.174     80.699    44.163
546.002     80.699    42.343
553.943     80.708    40.469
562.001     80.799    38.524
570.175     80.799    36.484
578.469     80.799    34.331
586.883     80.808    32.101
595.419     80.899    29.798
604.080     80.899    27.384
612.866     80.899    24.882
621.780     80.875    22.327
630.824     80.799    19.759
640.000     80.795    17.275
649.309     80.699    14.909
658.753     80.653    12.643
668.335     80.599    10.451
678.056     80.534     8.394
687.919     80.499     6.371
697.925     80.503     4.276
708.077     80.603     2.021
718.376     80.699    -0.550
728.825     80.771    -3.512
739.426     80.799    -6.868
750.181     80.799   -10.540
761.093     80.729   -14.386
772.163     80.562   -18.172
783.394     80.409   -21.821
794.789     80.177   -25.325
806.349     79.909   -28.621
818.078     79.644   -31.902
829.977     79.365   -35.295
842.050     79.025   -38.792
854.298     78.593   -42.161
866.724     78.061   -44.904
879.330     77.465   -46.563
892.120     76.913   -46.624
905.097     76.516   -45.229
918.262     76.399   -44.004
931.618     76.421   -44.337
945.169     76.404   -46.496
958.917     76.157   -49.779
972.864     75.620   -52.900
987.015     74.881   -54.551
1001.37     74.189   -54.265
1015.94     73.807   -53.295
1030.71     73.699   -53.923
1045.71     73.618   -57.370
1060.92     73.147   -62.920
1076.35     72.149   -68.216
1092.00     70.648   -70.202
1107.89     69.106   -66.141
1124.00     68.449   -57.759
1140.35     68.926   -51.843
1156.94     69.658   -52.020
1173.77     69.956   -56.227
1190.84     69.652   -60.727
1208.16     68.961   -62.402
1225.73     68.348   -60.137
1243.56     68.401   -56.587
1261.65     68.973   -55.882
1280.00     69.483   -58.879
1298.62     69.638   -63.503
1317.51     69.541   -67.499
1336.67     69.516   -70.283
1356.11     69.759   -73.703
1375.84     70.066   -79.939
1395.85     69.995   -88.175
1416.15     69.433   -94.079
1436.75     69.060   -94.374
1457.65     69.683   -94.265
1478.85     70.616  -100.921
1500.36     70.768  -112.923
1522.19     69.846  -123.646
1544.33     68.510  -127.855
1566.79     67.917  -128.972
1589.58     67.731  -134.920
1612.70     66.858  -144.620
1636.16     64.999  -150.069
1659.95     63.236  -145.126
1684.10     63.421  -137.818
1708.60     64.569  -141.934
1733.45     64.709  -155.544
1758.66     63.526  -169.566
1784.24     62.016   177.765
1810.19     60.857   152.513
1836.52     59.688    99.986
1863.24     60.035    30.821
1890.34     60.980   -25.698
1917.83     60.115   -58.256
1945.73     58.468   -66.548
1974.03     58.255   -69.413
2002.74     57.040   -74.040
2031.87     56.609   -50.764
2061.43     61.580   -34.357
2091.41     64.763   -49.630
2121.83     65.109   -65.809
2152.69     64.331   -66.552
2184.01     65.115   -57.741
2215.77     66.837   -55.417
2248.00     68.387   -56.441
2280.70     70.395   -60.802
2313.87     71.817   -73.798
2347.53     71.799   -87.126
2381.68     71.239   -92.537
2416.32     71.173   -93.740
2451.46     71.485   -94.406
2487.12     72.221   -95.080
2523.30     73.335   -99.391
2560.00     73.835  -108.777
2597.24     73.436  -114.551
2635.01     73.455  -114.169
2673.34     74.214  -114.442
2712.23     75.329  -117.536
2751.68     76.435  -125.329
2791.70     76.812  -136.346
2832.31     76.637  -144.518
2873.50     76.655  -152.220
2915.30     76.256  -159.329
2957.70     76.275  -163.445
3000.72     76.499  -170.791
3044.37     76.238  -179.028
3088.65     75.680   174.316
3133.58     74.968   168.365
3179.16     74.264   165.298
3225.40     73.716   160.947
3272.31     72.846   158.590
3319.91     71.912   158.254
3368.20     70.919   163.383
3417.19     71.210   171.827
3466.89     72.433   174.234
3517.32     73.500   171.026
3568.48     73.955   165.913
3620.39     74.414   161.083
3673.05     74.892   155.163
3726.47     75.270   146.464
3780.67     74.659   136.142
3835.67     73.489   133.601
3891.46     73.199   134.349
3948.06     73.214   130.935
4005.49     72.327   127.664
4063.75     71.795   133.452
4122.86     72.590   136.086
4182.82     73.447   133.818
4243.66     73.999   128.783
4305.39     74.454   124.505
4368.01     74.699   116.622
4431.55     74.543   108.252
4496.01     73.918   103.219
4561.40     73.586   100.663
4627.75     73.412    96.502
4695.06     72.925    92.430
4763.35     72.468    91.195
4832.64     72.324    90.166
4902.93     72.141    88.727
4974.24     72.175    88.500
5046.60     72.644    87.652
5120.00     73.365    82.136
5194.47     73.427    72.970
5270.03     73.199    66.777
5346.68     72.905    57.850
5424.45     71.780    48.645
5503.35     70.189    45.556
5583.40     68.856    46.346
5664.61     67.410    53.580
5747.01     67.934    67.470
5830.60     69.514    68.342
5915.41     70.614    64.552
6001.45     71.492    55.855
6088.74     71.250    43.895
6177.30     70.201    39.150
6267.15     69.617    39.546
6358.31     69.474    41.823
6450.80     70.455    42.831
6544.62     71.341    36.364
6639.82     71.856    27.758
6736.40     71.731    16.078
6834.38     71.000     7.981
6933.79     70.118     1.842
7034.64     69.218    -1.349
7136.96     68.767    -2.472
7240.77     68.521    -3.786
7346.09     68.635    -7.002
7452.94     68.570   -12.388
7561.35     68.296   -20.165
7671.33     67.439   -27.450
7782.91     66.388   -33.000
7896.12     64.743   -35.477
8010.97     63.491   -30.107
8127.49     63.377   -22.621
8245.71     64.337   -21.655
8365.65     64.654   -28.539
8487.33     64.006   -36.377
8610.78     62.421   -35.336
8736.03     62.417   -26.221
8863.09     63.767   -24.128
8992.01     64.899   -32.431
9122.80     64.835   -43.428
9255.50     63.931   -50.637
9390.12     62.813   -52.325
9526.70     62.146   -52.811
9665.27     62.019   -51.081
9805.86     62.362   -52.022
9948.49     62.479   -58.067
10093.2     61.845   -64.041
10240.0     60.487   -65.486
10388.9     59.350   -59.039
10540.1     60.305   -48.213
10693.4     62.140   -50.433
10848.9     63.045   -60.549
11006.7     62.869   -70.467
11166.8     62.356   -74.858
11329.2     62.425   -78.019
11494.0     62.668   -82.739
11661.2     62.842   -89.277
11830.8     62.827   -96.054
12002.9     63.222  -102.557
12177.5     63.745  -114.400
12354.6     63.203  -130.205
12534.3     61.613  -142.610
12716.6     59.809  -151.003
12901.6     57.708  -152.022
13089.2     56.927  -145.701
13279.6     57.297  -146.217
13472.8     57.452  -149.326
13668.8     58.056  -154.912
13867.6     58.363  -168.037
14069.3     57.240   178.146
14273.9     55.434   171.459
14481.5     54.117   168.342
14692.2     52.938   162.899
14905.9     50.805   164.421
15122.7     49.426   178.802
15342.7     50.869  -171.015
15565.8     52.338  -171.775
15792.2     53.495  -177.600
16021.9     54.774   172.677
16255.0     55.238   158.260
16491.4     54.799   142.887
16731.3     53.329   129.886
16974.7     51.376   121.878
17221.6     49.541   114.226
17472.1     46.532   111.483
17726.2     42.928   141.352
17984.0     44.579   158.422
18245.6     45.904   152.151
18511.0     46.135   145.701
18780.2     45.853   146.067
19053.4     45.062   142.568
19330.5     43.563   144.193
19611.7     43.451   143.566
19897.0     44.061   142.885
20186.4     43.619   138.828
20480.0     43.178   134.772
20777.9     42.736   130.715
21080.1     42.294   126.659
21386.7     41.853   122.602
21697.8     41.411   118.546
22013.4     40.969   114.489
22333.6     40.528   110.433
22658.4     40.086   106.375
22988.0     39.644   102.320
23322.4     39.203    98.263
23661.6     38.761    94.207
24005.8     38.319    90.150
24355.0     37.878    86.094
24709.2     37.436    82.037
25068.6     36.994    77.981
25433.2     36.553    73.923
25803.2     36.111    69.868
26178.5     35.670    65.811
26559.3     35.228    61.755
26945.6     34.786    57.698
27337.5     34.345    53.642
27735.2     33.903    49.585
28138.6     33.461    45.529
28547.9     33.020    41.472
28963.1     32.578    37.416
29384.4     32.136    33.359
29811.8     31.695    29.303
30245.4     31.253    25.246
30685.3     30.811    21.190
31131.7     30.370    17.133
31584.5     29.928    13.077
32043.9     29.486     9.020
32510.0     29.045     4.964
32982.8     28.603     0.907
33462.6     28.161    -3.149
33949.3     27.720    -7.206
34443.1     27.278   -11.262
34944.1     26.836   -15.319
35452.4     26.395   -19.375
35968.0     25.953   -23.432
36491.2     25.512   -27.488
37022.0     25.070   -31.545
37560.5     24.628   -35.601
38106.8     24.187   -39.658
38661.1     23.745   -43.714
39223.4     23.303   -47.771
39793.9     22.862   -51.827
