Freq[Hz]     dBSPL  Phase[Deg]
5.00000     40.002     5.024
5.07273     40.283     4.834
5.14651     40.563     4.646
5.22137     40.844     4.460
5.29732     41.112     4.266
5.37437     41.373     4.068
5.45254     41.634     3.872
5.53185     41.899     3.672
5.61231     42.170     3.464
5.69394     42.441     3.259
5.77676     42.716     3.051
5.86079     42.997     2.834
5.94604     43.278     2.620
6.03252     43.550     2.402
6.12027     43.806     2.176
6.20929     44.062     1.953
6.29961     44.322     1.724
6.39124     44.587     1.489
6.48420     44.851     1.257
6.57851     45.123     1.015
6.67420     45.396     0.772
6.77128     45.663     0.529
6.86977     45.905     0.276
6.96969     46.147     0.025
7.07107     46.423    -0.234
7.17392     46.714    -0.495
7.27827     46.996    -0.758
7.38413     47.252    -1.029
7.49154     47.509    -1.298
7.60050     47.772    -1.578
7.71105     48.036    -1.856
7.82321     48.305    -2.142
7.93701     48.576    -2.430
8.05245     48.850    -2.723
8.16958     49.128    -3.020
8.28841     49.409    -3.320
8.40896     49.695    -3.628
8.53128     49.969    -3.936
8.65537     50.212    -4.253
8.78126     50.457    -4.571
8.90899     50.705    -4.897
9.03857     50.971    -5.224
9.17004     51.279    -5.559
9.30342     51.567    -5.896
9.43874     51.827    -6.240
9.57603     52.091    -6.588
9.71532     52.357    -6.940
9.85663     52.627    -7.301
10.0000     52.899    -7.661
10.1455     53.177    -8.034
10.2930     53.439    -8.407
10.4427     53.662    -8.787
10.5946     53.927    -9.173
10.7487     54.216    -9.561
10.9051     54.511    -9.961
11.0637     54.782   -10.362
11.2246     55.019   -10.770
11.3879     55.259   -11.186
11.5535     55.523   -11.605
11.7216     55.835   -12.030
11.8921     56.095   -12.465
12.0650     56.346   -12.903
12.2405     56.600   -13.347
12.4186     56.858   -13.801
12.5992     57.118   -14.259
12.7825     57.381   -14.723
12.9684     57.648   -15.195
13.1570     57.918   -15.675
13.3484     58.192   -16.161
13.5426     58.468   -16.652
13.7395     58.748   -17.151
13.9394     59.032   -17.660
14.1421     59.319   -18.175
14.3478     59.570   -18.697
14.5565     59.803   -19.226
14.7683     60.101   -19.762
14.9831     60.402   -20.307
15.2010     60.627   -20.862
15.4221     60.917   -21.423
15.6464     61.171   -21.993
15.8740     61.447   -22.571
16.1049     61.725   -23.157
16.3392     61.992   -23.751
16.5768     62.290   -24.354
16.8179     62.527   -24.966
17.0626     62.766   -25.587
17.3107     63.033   -26.217
17.5625     63.353   -26.857
17.8180     63.601   -27.505
18.0771     63.852   -28.163
18.3401     64.107   -28.830
18.6068     64.364   -29.508
18.8775     64.624   -30.195
19.1521     64.948   -30.892
19.4306     65.254   -31.600
19.7133     65.523   -32.316
20.0000     65.696   -33.044
20.2909     65.989   -33.776
20.5860     66.390   -34.450
20.8855     66.762   -35.150
21.1893     67.051   -35.934
21.4975     67.367   -36.815
21.8102     67.679   -37.783
22.1274     67.901   -38.768
22.4492     68.079   -39.696
22.7758     68.329   -40.482
23.1071     68.585   -41.069
23.4432     68.778   -41.522
23.7841     69.121   -41.954
24.1301     69.403   -42.516
24.4811     69.591   -43.248
24.8372     69.951   -44.151
25.1984     70.259   -45.110
25.5649     70.451   -46.027
25.9368     70.674   -46.845
26.3141     70.825   -47.566
26.6968     70.978   -48.224
27.0851     71.167   -48.832
27.4791     71.394   -49.369
27.8788     71.651   -49.782
28.2843     71.813   -50.099
28.6957     71.977   -50.382
29.1131     72.244   -50.728
29.5365     72.494   -51.169
29.9661     72.786   -51.684
30.4020     73.019   -52.205
30.8442     73.159   -52.718
31.2929     73.433   -53.270
31.7480     73.698   -53.915
32.2098     73.967   -54.644
32.6783     74.194   -55.357
33.1536     74.407   -55.984
33.6359     74.553   -56.552
34.1251     74.881   -57.158
34.6215     75.102   -57.863
35.1250     75.258   -58.631
35.6359     75.522   -59.393
36.1543     75.733   -60.146
36.6802     75.959   -60.950
37.2137     76.223   -61.849
37.7550     76.501   -62.792
38.3041     76.639   -63.707
38.8613     76.844   -64.598
39.4265     77.004   -65.529
40.0000     77.299   -66.553
40.5818     77.450   -67.678
41.1721     77.668   -68.832
41.7710     77.801   -69.916
42.3785     77.850   -70.798
42.9949     78.099   -71.511
43.6203     78.288   -72.169
44.2548     78.401   -72.903
44.8985     78.659   -73.733
45.5515     78.920   -74.632
46.2141     79.085   -75.603
46.8863     79.299   -76.593
47.5683     79.499   -77.532
48.2602     79.699   -78.450
48.9621     79.799   -79.378
49.6743     79.969   -80.208
50.3968     80.158   -80.897
51.1299     80.351   -81.570
51.8736     80.548   -82.319
52.6281     80.650   -83.121
53.3936     80.979   -83.995
54.1702     81.267   -84.937
54.9581     81.382   -85.924
55.7575     81.702   -87.064
56.5685     81.826   -88.358
57.3914     82.156   -89.618
58.2261     82.299   -90.893
59.0730     82.597   -92.361
59.9323     82.799   -93.844
60.8040     83.021   -95.247
61.6884     83.144   -96.662
62.5857     83.309   -98.028
63.4960     83.536   -99.330
64.4196     83.676  -100.672
65.3566     83.888  -102.056
66.3073     84.122  -103.521
67.2717     84.277  -105.069
68.2502     84.462  -106.615
69.2429     84.607  -108.220
70.2501     84.816  -109.862
71.2719     85.061  -111.509
72.3086     85.244  -113.215
73.3603     85.467  -114.995
74.4274     85.675  -116.907
75.5099     85.722  -118.859
76.6083     85.918  -120.888
77.7226     86.022  -122.950
78.8531     86.099  -124.864
80.0000     86.254  -126.758
81.1636     86.399  -128.683
82.3442     86.499  -130.590
83.5419     86.599  -132.369
84.7570     86.655  -134.059
85.9899     86.799  -135.762
87.2406     86.822  -137.610
88.5096     87.003  -139.518
89.7970     87.120  -141.488
91.1031     87.282  -143.609
92.4282     87.399  -145.887
93.7726     87.405  -147.990
95.1366     87.566  -150.354
96.5204     87.619  -152.863
97.9243     87.699  -155.480
99.3486     87.599  -158.098
100.794     87.582  -160.334
102.260     87.499  -162.217
103.747     87.499  -163.788
105.256     87.499  -165.592
106.787     87.599  -167.706
108.340     87.683  -169.779
109.916     87.599  -171.860
111.515     87.656  -174.098
113.137     87.599  -176.372
114.783     87.585  -178.660
116.452     87.499   179.142
118.146     87.399   177.161
119.865     87.349   175.290
121.608     87.270   173.579
123.377     87.199   171.832
125.171     87.093   170.125
126.992     87.022   168.424
128.839     87.080   166.600
130.713     86.911   164.750
132.615     86.881   162.886
134.543     86.806   160.772
136.500     86.758   158.571
138.486     86.803   156.451
140.500     86.639   154.002
142.544     86.403   151.639
144.617     86.217   149.786
146.721     86.019   148.154
148.855     85.782   146.620
151.020     85.588   145.251
153.217     85.380   143.802
155.445     85.279   142.174
157.706     85.042   140.501
160.000     84.686   139.008
162.327     84.410   138.043
164.688     84.140   137.902
167.084     83.948   138.203
169.514     83.870   138.404
171.980     83.859   138.195
174.481     83.842   137.421
177.019     83.810   136.304
179.594     83.647   135.464
182.206     83.599   134.891
184.856     83.568   134.222
187.545     83.529   133.198
190.273     83.489   131.916
193.041     83.447   130.863
195.849     83.402   129.878
198.697     83.340   128.867
201.587     83.196   128.108
204.520     83.182   127.312
207.494     83.180   126.209
210.512     83.154   124.792
213.574     83.054   123.346
216.681     82.948   121.949
219.833     82.837   120.776
223.030     82.703   119.965
226.274     82.574   119.153
229.565     82.452   118.296
232.905     82.324   117.535
236.292     82.199   116.927
239.729     82.088   116.548
243.216     82.029   116.341
246.754     81.980   116.247
250.343     81.964   116.043
253.984     81.955   115.611
257.678     81.954   115.078
261.426     81.980   114.644
265.229     82.084   114.103
269.087     82.152   113.439
273.001     82.176   112.831
276.972     82.263   112.082
281.000     82.340   111.076
285.088     82.407   109.846
289.234     82.498   108.511
293.441     82.549   107.144
297.709     82.599   105.764
302.040     82.599   104.398
306.433     82.599   103.044
310.890     82.568   101.750
315.412     82.500   100.552
320.000     82.499    99.402
324.655     82.499    98.351
329.377     82.497    97.392
334.168     82.499    96.426
339.028     82.537    95.474
343.959     82.599    94.488
348.962     82.699    93.426
354.038     82.799    92.257
359.188     82.899    90.914
364.412     82.979    89.378
369.713     83.049    87.708
375.090     83.106    85.923
380.546     83.212    83.992
386.081     83.299    82.011
391.697     83.299    79.953
397.394     83.299    77.854
403.175     83.299    75.871
409.039     83.199    73.902
414.989     83.199    71.964
421.025     83.199    70.119
427.149     83.199    68.358
433.362     83.099    66.668
439.665     83.099    64.933
446.060     83.099    63.236
452.548     83.099    61.559
459.131     83.099    59.841
465.809     83.099    58.070
472.584     83.099    56.286
479.458     83.099    54.480
486.432     83.099    52.594
493.507     83.099    50.614
500.686     83.099    48.525
507.968     83.099    46.370
515.357     83.164    44.144
522.853     83.199    41.800
530.458     83.166    39.352
538.174     83.061    36.889
546.002     82.985    34.454
553.943     82.885    32.034
562.001     82.776    29.677
570.175     82.656    27.422
578.469     82.534    25.288
586.883     82.416    23.308
595.419     82.303    21.434
604.080     82.212    19.562
612.866     82.141    17.624
621.780     82.099    15.562
630.824     81.999    13.346
640.000     81.947    11.029
649.309     81.863     8.651
658.753     81.761     6.214
668.335     81.643     3.713
678.056     81.526     1.254
687.919     81.392    -1.240
697.925     81.269    -3.831
708.077     81.178    -6.539
718.376     81.067    -9.438
728.825     80.885   -12.490
739.426     80.637   -15.573
750.181     80.366   -18.499
761.093     80.002   -21.063
772.163     79.606   -23.091
783.394     79.254   -24.623
794.789     78.908   -25.843
806.349     78.583   -26.979
818.078     78.275   -28.258
829.977     77.946   -29.684
842.050     77.558   -31.013
854.298     77.117   -31.872
866.724     76.696   -31.972
879.330     76.356   -31.377
892.120     76.148   -30.378
905.097     76.027   -29.319
918.262     75.957   -28.958
931.618     75.821   -29.254
945.169     75.558   -29.433
958.917     75.231   -28.666
972.864     75.015   -26.774
987.015     75.045   -24.692
1001.37     75.319   -23.963
1015.94     75.604   -25.483
1030.71     75.672   -28.741
1045.71     75.397   -32.402
1060.92     74.835   -34.746
1076.35     74.256   -34.585
1092.00     73.999   -32.658
1107.89     74.213   -31.440
1124.00     74.622   -32.892
1140.35     74.877   -36.768
1156.94     74.821   -41.446
1173.77     74.488   -44.982
1190.84     74.156   -46.377
1208.16     74.120   -46.587
1225.73     74.362   -47.988
1243.56     74.705   -52.018
1261.65     74.865   -57.966
1280.00     74.729   -64.183
1298.62     74.483   -69.728
1317.51     74.226   -75.060
1336.67     73.927   -80.897
1356.11     73.401   -86.559
1375.84     72.675   -90.153
1395.85     72.150   -90.788
1416.15     72.188   -90.678
1436.75     72.597   -92.810
1457.65     72.858   -98.156
1478.85     72.644  -104.735
1500.36     72.099  -109.692
1522.19     71.636  -112.354
1544.33     71.499  -115.112
1566.79     71.367  -119.114
1589.58     71.170  -121.890
1612.70     71.482  -123.869
1636.16     72.247  -130.518
1659.95     72.476  -142.854
1684.10     71.714  -155.652
1708.60     70.445  -164.390
1733.45     69.400  -170.576
1758.66     68.503  -178.150
1784.24     67.298   173.422
1810.19     65.743   166.286
1836.52     64.140   160.733
1863.24     63.244   152.380
1890.34     63.027   132.464
1917.83     62.899   100.486
1945.73     63.156    66.097
1974.03     64.311    36.744
2002.74     65.714    11.676
2031.87     66.370    -9.568
2061.43     66.298   -22.033
2091.41     66.795   -23.948
2121.83     68.692   -25.682
2152.69     70.589   -34.713
2184.01     71.652   -45.998
2215.77     72.309   -54.911
2248.00     72.920   -63.064
2280.70     73.192   -71.027
2313.87     73.260   -75.206
2347.53     73.986   -77.362
2381.68     74.916   -84.320
2416.32     75.063   -92.774
2451.46     75.005   -96.973
2487.12     75.266   -99.492
2523.30     75.773  -102.420
2560.00     76.453  -106.634
2597.24     77.088  -113.286
2635.01     77.299  -120.192
2673.34     77.544  -124.537
2712.23     78.005  -131.061
2751.68     78.026  -137.678
2791.70     78.181  -143.503
2832.31     78.137  -149.627
2873.50     78.199  -154.186
2915.30     78.336  -160.226
2957.70     78.249  -166.542
3000.72     78.080  -172.134
3044.37     77.750  -177.946
3088.65     77.464   178.150
3133.58     77.377   171.821
3179.16     76.704   165.726
3225.40     75.722   162.299
3272.31     74.745   163.359
3319.91     74.520   166.503
3368.20     74.491   167.203
3417.19     74.492   169.505
3466.89     74.987   172.397
3517.32     76.067   172.815
3568.48     76.880   168.101
3620.39     77.483   162.945
3673.05     77.986   156.393
3726.47     78.232   149.591
3780.67     78.243   142.085
3835.67     78.022   135.678
3891.46     77.722   129.978
3948.06     77.281   125.219
4005.49     76.717   121.779
4063.75     76.313   120.338
4122.86     76.099   119.491
4182.82     76.126   118.206
4243.66     76.362   115.722
4305.39     76.460   111.268
4368.01     76.311   107.302
4431.55     76.017   103.272
4496.01     75.550   101.496
4561.40     75.456   101.659
4627.75     75.691   100.213
4695.06     75.914    98.826
4763.35     76.253    94.819
4832.64     76.299    90.248
4902.93     76.391    87.245
4974.24     76.524    82.609
5046.60     76.621    78.315
5120.00     76.788    72.833
5194.47     76.635    66.069
5270.03     76.397    60.591
5346.68     76.029    53.257
5424.45     75.081    47.542
5503.35     74.231    46.224
5583.40     73.536    45.088
5664.61     72.829    47.075
5747.01     72.882    50.513
5830.60     73.481    51.320
5915.41     74.155    49.085
6001.45     74.741    42.682
6088.74     74.668    33.973
6177.30     73.933    27.915
6267.15     73.268    26.828
6358.31     73.066    27.593
6450.80     73.566    28.174
6544.62     74.201    24.446
6639.82     74.639    18.873
6736.40     74.910    11.975
6834.38     75.040     4.167
6933.79     74.736    -3.820
7034.64     74.395   -10.617
7136.96     73.801   -16.397
7240.77     73.477   -21.061
7346.09     73.071   -26.918
7452.94     72.561   -32.219
7561.35     71.943   -37.690
7671.33     71.027   -42.274
7782.91     70.071   -44.531
7896.12     69.095   -43.574
8010.97     68.806   -40.453
8127.49     69.249   -38.979
8245.71     70.071   -43.614
8365.65     70.071   -52.848
8487.33     69.130   -60.940
8610.78     67.675   -60.872
8736.03     67.405   -54.572
8863.09     68.272   -53.768
8992.01     69.066   -58.932
9122.80     69.299   -67.508
9255.50     68.994   -76.304
9390.12     68.012   -82.309
9526.70     66.990   -83.383
9665.27     66.615   -80.929
9805.86     66.986   -81.726
9948.49     67.158   -86.642
10093.2     66.695   -92.459
10240.0     65.798   -94.696
10388.9     65.171   -91.141
10540.1     65.853   -87.678
10693.4     66.804   -91.997
10848.9     66.848  -100.176
11006.7     66.364  -103.375
11166.8     66.615  -102.583
11329.2     67.559  -106.348
11494.0     68.220  -116.408
11661.2     68.063  -128.427
11830.8     67.299  -136.654
12002.9     66.731  -140.632
12177.5     66.681  -146.566
12354.6     66.352  -155.749
12534.3     65.432  -163.520
12716.6     64.368  -167.041
12901.6     63.881  -169.679
13089.2     63.686  -174.882
13279.6     63.057   178.302
13472.8     62.157   175.353
13668.8     62.242   172.995
13867.6     62.363   163.848
14069.3     61.462   151.854
14273.9     59.950   145.940
14481.5     58.856   143.610
14692.2     57.857   139.632
14905.9     55.990   140.712
15122.7     55.409   153.463
15342.7     57.289   157.144
15565.8     58.617   148.936
15792.2     59.157   139.063
16021.9     59.751   128.045
16255.0     59.737   112.686
16491.4     58.799    97.157
16731.3     57.279    87.505
16974.7     55.806    78.087
17221.6     53.626    69.602
17472.1     50.285    73.696
17726.2     48.950    93.975
17984.0     50.531   107.466
18245.6     52.275   104.865
18511.0     53.021    96.594
18780.2     53.050    88.587
19053.4     52.539    80.855
19330.5     52.242    74.840
19611.7     52.183    68.946
19897.0     51.999    64.395
20186.4     51.607    59.700
20480.0     51.215    55.006
20777.9     50.824    50.312
21080.1     50.432    45.618
21386.7     50.040    40.923
21697.8     49.648    36.229
22013.4     49.256    31.535
22333.6     48.864    26.841
22658.4     48.473    22.145
22988.0     48.081    17.452
23322.4     47.689    12.758
23661.6     47.297     8.064
24005.8     46.905     3.369
24355.0     46.513    -1.324
24709.2     46.122    -6.019
25068.6     45.730   -10.713
25433.2     45.338   -15.408
25803.2     44.946   -20.102
26178.5     44.554   -24.796
26559.3     44.162   -29.490
26945.6     43.770   -34.184
27337.5     43.379   -38.879
27735.2     42.987   -43.572
28138.6     42.595   -48.267
28547.9     42.203   -52.960
28963.1     41.811   -57.656
29384.4     41.419   -62.350
29811.8     41.028   -67.044
30245.4     40.636   -71.738
30685.3     40.244   -76.433
31131.7     39.852   -81.127
31584.5     39.460   -85.821
32043.9     39.068   -90.515
32510.0     38.677   -95.210
32982.8     38.285   -99.904
33462.6     37.893  -104.598
33949.3     37.501  -109.292
34443.1     37.109  -113.987
34944.1     36.717  -118.681
35452.4     36.325  -123.375
35968.0     35.934  -128.069
36491.2     35.542  -132.764
37022.0     35.150  -137.458
37560.5     34.758  -142.152
38106.8     34.366  -146.846
38661.1     33.974  -151.541
39223.4     33.583  -156.235
39793.9     33.191  -160.929
