Freq[Hz]     dBSPL  Phase[Deg]
5.00000     44.447    21.633
5.07273     44.689    21.422
5.14651     44.931    21.213
5.22137     45.173    21.005
5.29732     45.402    20.790
5.37437     45.625    20.570
5.45254     45.847    20.352
5.53185     46.074    20.130
5.61231     46.306    19.900
5.69394     46.539    19.671
5.77676     46.774    19.440
5.86079     47.017    19.199
5.94604     47.259    18.961
6.03252     47.493    18.718
6.12027     47.710    18.468
6.20929     47.927    18.220
6.29961     48.149    17.964
6.39124     48.375    17.704
6.48420     48.601    17.446
6.57851     48.835    17.176
6.67420     49.069    16.907
6.77128     49.297    16.636
6.86977     49.501    16.355
6.96969     49.704    16.076
7.07107     49.942    15.788
7.17392     50.194    15.498
7.27827     50.437    15.206
7.38413     50.655    14.905
7.49154     50.873    14.606
7.60050     51.097    14.295
7.71105     51.323    13.985
7.82321     51.553    13.667
7.93701     51.785    13.347
8.05245     52.021    13.022
8.16958     52.261    12.691
8.28841     52.503    12.357
8.40896     52.750    12.016
8.53128     52.986    11.673
8.65537     53.190    11.321
8.78126     53.396    10.967
8.90899     53.606    10.605
9.03857     53.833    10.241
9.17004     54.102     9.869
9.30342     54.352     9.494
9.43874     54.574     9.112
9.57603     54.799     8.725
9.71532     55.026     8.333
9.85663     55.258     7.933
10.0000     55.491     7.532
10.1455     55.730     7.119
10.2930     55.953     6.704
10.4427     56.138     6.281
10.5946     56.364     5.852
10.7487     56.614     5.420
10.9051     56.871     4.976
11.0637     57.104     4.530
11.2246     57.302     4.077
11.3879     57.503     3.614
11.5535     57.728     3.148
11.7216     58.002     2.676
11.8921     58.223     2.193
12.0650     58.436     1.706
12.2405     58.651     1.212
12.4186     58.870     0.708
12.5992     59.092     0.198
12.7825     59.317    -0.317
12.9684     59.545    -0.842
13.1570     59.777    -1.375
13.3484     60.011    -1.915
13.5426     60.249    -2.462
13.7395     60.490    -3.017
13.9394     60.736    -3.582
14.1421     60.984    -4.154
14.3478     61.197    -4.734
14.5565     61.391    -5.322
14.7683     61.650    -5.919
14.9831     61.913    -6.525
15.2010     62.099    -7.141
15.4221     62.350    -7.765
15.6464     62.566    -8.398
15.8740     62.803    -9.040
16.1049     63.043    -9.692
16.3392     63.271   -10.352
16.5768     63.531   -11.023
16.8179     63.729   -11.703
17.0626     63.929   -12.393
17.3107     64.157   -13.094
17.5625     64.439   -13.804
17.8180     64.649   -14.525
18.0771     64.861   -15.256
18.3401     65.077   -15.998
18.6068     65.295   -16.751
18.8775     65.517   -17.515
19.1521     65.803   -18.290
19.4306     66.070   -19.076
19.7133     66.301   -19.873
20.0000     66.435   -20.682
20.2909     66.689   -21.496
20.5860     67.068   -22.214
20.8855     67.362   -22.967
21.1893     67.651   -23.810
21.4975     67.897   -24.755
21.8102     68.123   -25.792
22.1274     68.301   -26.852
22.4492     68.479   -27.860
22.7758     68.709   -28.730
23.1071     68.885   -29.405
23.4432     69.076   -29.952
23.7841     69.326   -30.482
24.1301     69.603   -31.147
24.4811     69.791   -31.987
24.8372     70.151   -33.001
25.1984     70.378   -34.076
25.5649     70.551   -35.113
25.9368     70.774   -36.054
26.3141     70.925   -36.902
26.6968     70.988   -37.691
27.0851     71.167   -38.434
27.4791     71.394   -39.109
27.8788     71.638   -39.663
28.2843     71.713   -40.125
28.6957     71.877   -40.556
29.1131     72.094   -41.052
29.5365     72.294   -41.647
29.9661     72.586   -42.319
30.4020     72.721   -42.998
30.8442     72.937   -43.674
31.2929     73.133   -44.390
31.7480     73.329   -45.202
32.2098     73.662   -46.100
32.6783     73.794   -46.983
33.1536     74.007   -47.784
33.6359     74.153   -48.527
34.1251     74.399   -49.310
34.6215     74.648   -50.194
35.1250     74.849   -51.142
35.6359     75.022   -52.087
36.1543     75.233   -53.024
36.6802     75.443   -54.013
37.2137     75.685   -55.098
37.7550     75.901   -56.229
38.3041     76.039   -57.332
38.8613     76.244   -58.413
39.4265     76.404   -59.535
40.0000     76.622   -60.750
40.5818     76.850   -62.068
41.1721     76.968   -63.415
41.7710     77.107   -64.693
42.3785     77.250   -65.770
42.9949     77.399   -66.677
43.6203     77.588   -67.531
44.2548     77.701   -68.460
44.8985     77.899   -69.486
45.5515     78.158   -70.582
46.2141     78.385   -71.749
46.8863     78.599   -72.935
47.5683     78.799   -74.071
48.2602     78.999   -75.185
48.9621     78.999   -76.309
49.6743     79.169   -77.335
50.3968     79.358   -78.219
51.1299     79.551   -79.087
51.8736     79.748   -80.030
52.6281     79.879   -81.027
53.3936     80.179   -82.095
54.1702     80.467   -83.229
54.9581     80.582   -84.408
55.7575     80.902   -85.740
56.5685     81.079   -87.225
57.3914     81.356   -88.674
58.2261     81.499   -90.138
59.0730     81.797   -91.793
59.9323     81.999   -93.463
60.8040     82.221   -95.051
61.6884     82.344   -96.650
62.5857     82.509   -98.199
63.4960     82.797   -99.683
64.4196     82.876  -101.205
65.3566     83.142  -102.768
66.3073     83.322  -104.410
67.2717     83.477  -106.133
68.2502     83.699  -107.854
69.2429     83.899  -109.631
70.2501     84.116  -111.443
71.2719     84.361  -113.259
72.3086     84.544  -115.132
73.3603     84.767  -117.077
74.4274     84.975  -119.152
75.5099     85.022  -121.264
76.6083     85.218  -123.452
77.7226     85.322  -125.671
78.8531     85.431  -127.739
80.0000     85.599  -129.786
81.1636     85.762  -131.860
82.3442     85.799  -133.915
83.5419     85.899  -135.839
84.7570     86.055  -137.671
85.9899     86.199  -139.514
87.2406     86.222  -141.500
88.5096     86.403  -143.543
89.7970     86.599  -145.645
91.1031     86.682  -147.896
92.4282     86.899  -150.300
93.7726     86.899  -152.527
95.1366     86.966  -155.012
96.5204     87.119  -157.639
97.9243     87.199  -160.371
99.3486     87.099  -163.101
100.794     87.082  -165.444
102.260     87.099  -167.433
103.747     87.069  -169.106
105.256     86.999  -171.008
106.787     87.199  -173.217
108.340     87.183  -175.381
109.916     87.199  -177.549
111.515     87.256  -179.870
113.137     87.205   177.777
114.783     87.241   175.415
116.452     87.199   173.147
118.146     87.037   171.100
119.865     86.949   169.169
121.608     86.970   167.404
123.377     86.899   165.608
125.171     86.793   163.857
126.992     86.722   162.119
128.839     86.780   160.262
130.713     86.611   158.386
132.615     86.594   156.500
134.543     86.589   154.370
136.500     86.558   152.156
138.486     86.603   150.027
140.500     86.472   147.567
142.544     86.253   145.191
144.617     86.117   143.319
146.721     85.935   141.659
148.855     85.732   140.080
151.020     85.588   138.645
153.217     85.430   137.104
155.445     85.362   135.352
157.706     85.192   133.522
160.000     84.857   131.817
162.327     84.644   130.598
164.688     84.440   130.183
167.084     84.320   130.149
169.514     84.241   129.950
171.980     84.259   129.304
174.481     84.325   128.097
177.019     84.281   126.524
179.594     84.162   125.174
182.206     84.149   124.035
184.856     84.140   122.783
187.545     84.115   121.202
190.273     84.089   119.309
193.041     84.075   117.634
195.849     84.002   116.013
198.697     83.940   114.310
201.587     83.821   112.843
204.520     83.782   111.325
207.494     83.767   109.483
210.512     83.732   107.265
213.574     83.592   105.004
216.681     83.485   102.831
219.833     83.293   100.827
223.030     83.136    99.141
226.274     82.907    97.470
229.565     82.708    95.788
232.905     82.491    94.254
236.292     82.243    92.949
239.729     82.008    91.942
243.216     81.829    91.239
246.754     81.630    90.801
250.343     81.474    90.403
253.984     81.345    89.940
257.678     81.224    89.509
261.426     81.143    89.283
265.229     81.154    88.994
269.087     81.207    88.568
273.001     81.186    88.141
276.972     81.263    87.474
281.000     81.349    86.428
285.088     81.457    85.004
289.234     81.498    83.322
293.441     81.599    81.459
297.709     81.599    79.457
302.040     81.599    77.357
306.433     81.566    75.150
310.890     81.453    72.906
315.412     81.333    70.740
320.000     81.214    68.647
324.655     81.057    66.727
329.377     80.874    65.019
334.168     80.671    63.421
339.028     80.468    62.045
343.959     80.299    60.850
348.962     80.199    59.768
354.038     80.121    58.726
359.188     80.035    57.605
364.412     79.999    56.323
369.713     79.935    54.866
375.090     79.899    53.200
380.546     79.899    51.265
386.081     79.899    49.141
391.697     79.874    46.795
397.394     79.768    44.278
403.175     79.646    41.810
409.039     79.481    39.301
414.989     79.343    36.816
421.025     79.134    34.485
427.149     78.893    32.344
433.362     78.634    30.417
439.665     78.366    28.610
446.060     78.134    27.036
452.548     77.899    25.674
459.131     77.632    24.460
465.809     77.394    23.369
472.584     77.171    22.387
479.458     77.025    21.464
486.432     76.888    20.518
493.507     76.744    19.486
500.686     76.609    18.300
507.968     76.474    16.935
515.357     76.359    15.368
522.853     76.266    13.568
530.458     76.080    11.588
538.174     75.799     9.585
546.002     75.499     7.714
553.943     75.163     6.120
562.001     74.799     5.005
570.175     74.438     4.533
578.469     74.129     4.721
586.883     73.942     5.354
595.419     73.899     6.011
604.080     73.999     6.220
612.866     74.182     5.586
621.780     74.379     3.917
630.824     74.511     1.271
640.000     74.547    -2.047
649.309     74.419    -5.671
658.753     74.126    -9.271
668.335     73.658   -12.451
678.056     73.049   -14.609
687.919     72.374   -15.338
697.925     71.729   -14.420
708.077     71.292   -12.103
718.376     71.163    -9.160
728.825     71.261    -6.654
739.426     71.561    -5.404
750.181     71.959    -5.683
761.093     72.279    -7.261
772.163     72.472    -9.628
783.394     72.599   -12.286
794.789     72.593   -14.810
806.349     72.499   -16.842
818.078     72.499   -18.463
829.977     72.505   -20.097
842.050     72.628   -22.364
854.298     72.699   -25.687
866.724     72.673   -29.956
879.330     72.385   -34.652
892.120     71.782   -38.333
905.097     70.913   -39.166
918.262     70.130   -36.604
931.618     69.848   -31.992
945.169     70.204   -28.640
958.917     70.788   -29.048
972.864     71.167   -32.962
987.015     71.117   -38.475
1001.37     70.617   -43.312
1015.94     69.882   -45.427
1030.71     69.369   -44.651
1045.71     69.413   -43.609
1060.92     69.830   -45.616
1076.35     70.139   -51.433
1092.00     69.978   -59.651
1107.89     69.249   -68.317
1124.00     67.915   -75.201
1140.35     66.088   -77.943
1156.94     64.064   -74.257
1173.77     62.619   -64.199
1190.84     62.418   -52.779
1208.16     63.048   -45.592
1225.73     63.691   -43.048
1243.56     64.177   -42.391
1261.65     64.747   -41.974
1280.00     65.615   -43.250
1298.62     66.548   -48.567
1317.51     67.059   -57.845
1336.67     66.863   -68.292
1356.11     66.008   -75.953
1375.84     64.986   -78.402
1395.85     64.454   -77.321
1416.15     64.488   -76.118
1436.75     64.790   -75.330
1457.65     65.235   -75.443
1478.85     65.656   -76.632
1500.36     66.099   -77.257
1522.19     67.021   -78.141
1544.33     68.243   -84.005
1566.79     68.870   -95.431
1589.58     68.551  -106.575
1612.70     68.005  -112.345
1636.16     68.288  -117.556
1659.95     68.619  -129.930
1684.10     67.612  -146.423
1708.60     64.890  -154.862
1733.45     62.187  -144.116
1758.66     62.842  -130.754
1784.24     64.550  -133.546
1810.19     65.299  -146.243
1836.52     65.020  -163.272
1863.24     63.817   176.679
1890.34     61.627   152.220
1917.83     58.698   118.210
1945.73     57.291    70.788
1974.03     59.686    23.435
2002.74     62.862   -11.533
2031.87     64.920   -38.251
2061.43     65.811   -60.769
2091.41     65.657   -80.375
2121.83     64.416   -94.325
2152.69     62.791   -96.265
2184.01     62.786   -88.230
2215.77     64.462   -85.609
2248.00     65.590   -90.201
2280.70     66.262   -92.836
2313.87     67.085   -96.124
2347.53     67.356   -99.306
2381.68     68.186   -97.742
2416.32     69.683  -101.567
2451.46     70.406  -109.443
2487.12     70.806  -114.433
2523.30     71.411  -118.591
2560.00     72.005  -124.203
2597.24     72.457  -129.951
2635.01     72.991  -134.948
2673.34     73.655  -140.954
2712.23     74.232  -148.773
2751.68     74.428  -157.386
2791.70     74.453  -165.323
2832.31     74.009  -172.749
2873.50     73.383  -174.677
2915.30     73.723  -173.637
2957.70     74.802  -178.056
3000.72     75.230   171.784
3044.37     75.108   162.523
3088.65     74.667   153.883
3133.58     74.260   147.016
3179.16     73.626   137.728
3225.40     72.062   130.181
3272.31     70.017   128.577
3319.91     67.978   136.505
3368.20     67.810   150.906
3417.19     68.724   160.154
3466.89     70.729   166.050
3517.32     72.391   161.075
3568.48     73.165   153.710
3620.39     73.880   146.266
3673.05     74.310   136.542
3726.47     74.102   126.526
3780.67     73.265   119.253
3835.67     72.641   117.387
3891.46     72.674   116.022
3948.06     72.633   112.025
4005.49     72.214   109.565
4063.75     72.229   108.411
4122.86     72.503   104.795
4182.82     72.569    99.294
4243.66     72.706    95.669
4305.39     72.834    88.156
4368.01     72.383    79.794
4431.55     71.397    72.537
4496.01     70.065    69.470
4561.40     68.788    71.426
4627.75     68.468    76.855
4695.06     68.755    78.286
4763.35     68.959    78.334
4832.64     69.481    76.961
4902.93     69.883    73.085
4974.24     70.061    68.418
5046.60     70.175    63.605
5120.00     70.197    58.247
5194.47     70.314    50.329
5270.03     69.976    41.223
5346.68     68.902    32.624
5424.45     67.344    30.249
5503.35     66.134    32.441
5583.40     65.200    38.073
5664.61     65.706    44.504
5747.01     66.690    41.245
5830.60     66.644    37.326
5915.41     66.795    35.948
6001.45     67.069    30.334
6088.74     66.872    25.456
6177.30     66.760    21.615
6267.15     66.387    16.497
6358.31     66.015    14.774
6450.80     66.075    13.066
6544.62     66.435     8.711
6639.82     66.198     1.211
6736.40     65.360    -2.193
6834.38     64.839    -1.671
6933.79     65.273    -2.489
7034.64     65.289    -6.798
7136.96     65.318    -8.237
7240.77     65.790   -12.347
7346.09     66.047   -21.471
7452.94     65.638   -29.794
7561.35     64.984   -37.771
7671.33     63.855   -45.003
7782.91     62.442   -47.255
7896.12     61.282   -43.451
8010.97     61.383   -39.838
8127.49     61.765   -42.210
8245.71     61.791   -47.434
8365.65     61.018   -50.230
8487.33     61.038   -48.007
8610.78     61.673   -50.989
8736.03     61.647   -58.066
8863.09     60.883   -61.317
8992.01     60.687   -61.813
9122.80     60.461   -64.768
9255.50     60.189   -65.610
9390.12     60.436   -65.567
9526.70     60.887   -70.849
9665.27     60.939   -75.404
9805.86     60.999   -81.124
9948.49     60.829   -88.525
10093.2     59.903   -94.938
10240.0     58.327   -92.259
10388.9     58.601   -80.009
10540.1     60.652   -78.482
10693.4     61.896   -88.735
10848.9     61.898  -101.935
11006.7     60.772  -110.023
11166.8     59.938  -110.932
11329.2     60.366  -110.535
11494.0     61.296  -115.033
11661.2     61.760  -125.821
11830.8     61.312  -138.247
12002.9     59.853  -149.843
12177.5     57.476  -154.261
12354.6     56.079  -149.709
12534.3     55.651  -149.982
12716.6     55.145  -150.252
12901.6     55.515  -154.251
13089.2     55.767  -165.546
13279.6     54.932   179.840
13472.8     53.006   172.149
13668.8     50.452   173.343
13867.6     49.311   179.600
14069.3     49.154  -179.497
14273.9     49.199   177.815
14481.5     49.031   167.023
14692.2     48.256   154.283
14905.9     46.259   148.099
15122.7     45.646   161.062
15342.7     46.888   167.567
15565.8     47.413   162.708
15792.2     48.345   162.952
16021.9     49.653   155.701
16255.0     49.987   140.980
16491.4     49.690   125.813
16731.3     48.643   109.519
16974.7     46.475    95.902
17221.6     43.553    93.712
17472.1     41.354    99.695
17726.2     39.987   110.304
17984.0     39.530   122.757
18245.6     42.133   133.803
18511.0     43.076   123.429
18780.2     43.010   115.331
19053.4     43.025   106.770
19330.5     43.297    98.677
19611.7     42.293    91.660
19897.0     41.636    88.129
20186.4     41.154    84.100
20480.0     40.672    80.072
20777.9     40.190    76.043
21080.1     39.708    72.014
21386.7     39.226    67.985
21697.8     38.744    63.956
22013.4     38.262    59.927
22333.6     37.780    55.898
22658.4     37.298    51.869
22988.0     36.816    47.841
23322.4     36.335    43.812
23661.6     35.853    39.783
24005.8     35.371    35.754
24355.0     34.889    31.725
24709.2     34.407    27.697
25068.6     33.925    23.668
25433.2     33.443    19.638
25803.2     32.961    15.610
26178.5     32.479    11.581
26559.3     31.997     7.552
26945.6     31.515     3.524
27337.5     31.033    -0.505
27735.2     30.551    -4.534
28138.6     30.070    -8.563
28547.9     29.588   -12.592
28963.1     29.106   -16.621
29384.4     28.624   -20.649
29811.8     28.142   -24.678
30245.4     27.660   -28.707
30685.3     27.178   -32.736
31131.7     26.696   -36.765
31584.5     26.214   -40.794
32043.9     25.732   -44.823
32510.0     25.250   -48.851
32982.8     24.768   -52.880
33462.6     24.287   -56.909
33949.3     23.805   -60.938
34443.1     23.323   -64.967
34944.1     22.841   -68.996
35452.4     22.359   -73.024
35968.0     21.877   -77.053
36491.2     21.395   -81.082
37022.0     20.913   -85.111
37560.5     20.431   -89.140
38106.8     19.949   -93.169
38661.1     19.467   -97.197
39223.4     18.985  -101.226
39793.9     18.504  -105.255
