Freq[Hz]     dBSPL  Phase[Deg]
5.00000     49.462    12.241
5.07273     49.680    12.076
5.14651     49.898    11.913
5.22137     50.116    11.753
5.29732     50.322    11.585
5.37437     50.520    11.414
5.45254     50.719    11.245
5.53185     50.921    11.072
5.61231     51.130    10.893
5.69394     51.338    10.716
5.77676     51.550    10.536
5.86079     51.769    10.348
5.94604     51.988    10.164
6.03252     52.197     9.975
6.12027     52.391     9.780
6.20929     52.584     9.588
6.29961     52.782     9.390
6.39124     52.984     9.187
6.48420     53.186     8.987
6.57851     53.396     8.777
6.67420     53.607     8.568
6.77128     53.811     8.358
6.86977     53.990     8.139
6.96969     54.170     7.923
7.07107     54.384     7.699
7.17392     54.612     7.473
7.27827     54.831     7.247
7.38413     55.025     7.012
7.49154     55.219     6.780
7.60050     55.420     6.538
7.71105     55.621     6.298
7.82321     55.828     6.051
7.93701     56.036     5.802
8.05245     56.248     5.549
8.16958     56.464     5.292
8.28841     56.682     5.033
8.40896     56.905     4.767
8.53128     57.118     4.501
8.65537     57.298     4.227
8.78126     57.480     3.953
8.90899     57.666     3.671
9.03857     57.870     3.389
9.17004     58.115     3.099
9.30342     58.341     2.808
9.43874     58.538     2.512
9.57603     58.739     2.210
9.71532     58.943     1.906
9.85663     59.151     1.595
10.0000     59.360     1.284
10.1455     59.575     0.962
10.2930     59.775     0.640
10.4427     59.936     0.311
10.5946     60.138    -0.022
10.7487     60.364    -0.357
10.9051     60.597    -0.702
11.0637     60.806    -1.050
11.2246     60.980    -1.401
11.3879     61.158    -1.761
11.5535     61.359    -2.123
11.7216     61.609    -2.490
11.8921     61.806    -2.865
12.0650     61.995    -3.244
12.2405     62.186    -3.627
12.4186     62.382    -4.020
12.5992     62.580    -4.416
12.7825     62.780    -4.816
12.9684     62.985    -5.223
13.1570     63.193    -5.638
13.3484     63.403    -6.058
13.5426     63.617    -6.482
13.7395     63.835    -6.913
13.9394     64.056    -7.353
14.1421     64.281    -7.798
14.3478     64.469    -8.248
14.5565     64.640    -8.705
14.7683     64.875    -9.169
14.9831     65.114    -9.640
15.2010     65.277   -10.119
15.4221     65.504   -10.604
15.6464     65.696   -11.096
15.8740     65.909   -11.595
16.1049     66.125   -12.101
16.3392     66.329   -12.614
16.5768     66.565   -13.135
16.8179     66.739   -13.664
17.0626     66.916   -14.200
17.3107     67.120   -14.745
17.5625     67.378   -15.297
17.8180     67.564   -15.857
18.0771     67.752   -16.426
18.3401     67.944   -17.002
18.6068     68.138   -17.587
18.8775     68.336   -18.181
19.1521     68.598   -18.783
19.4306     68.841   -19.394
19.7133     69.048   -20.013
20.0000     69.159   -20.642
20.2909     69.389   -21.273
20.5860     69.768   -21.796
20.8855     70.059   -22.340
21.1893     70.264   -22.979
21.4975     70.497   -23.723
21.8102     70.723   -24.563
22.1274     70.901   -25.429
22.4492     71.079   -26.247
22.7758     71.290   -26.931
23.1071     71.385   -27.424
23.4432     71.576   -27.793
23.7841     71.826   -28.148
24.1301     72.014   -28.642
24.4811     72.191   -29.315
24.8372     72.551   -30.166
25.1984     72.697   -31.081
25.5649     72.851   -31.962
25.9368     73.074   -32.751
26.3141     73.139   -33.451
26.6968     73.278   -34.094
27.0851     73.371   -34.695
27.4791     73.591   -35.233
27.8788     73.751   -35.652
28.2843     73.889   -35.984
28.6957     73.977   -36.288
29.1131     74.194   -36.660
29.5365     74.394   -37.135
29.9661     74.603   -37.689
30.4020     74.721   -38.255
30.8442     74.937   -38.820
31.2929     75.133   -39.430
31.7480     75.329   -40.137
32.2098     75.567   -40.934
32.6783     75.770   -41.720
33.1536     75.907   -42.426
33.6359     75.969   -43.079
34.1251     76.281   -43.773
34.6215     76.448   -44.571
35.1250     76.558   -45.437
35.6359     76.822   -46.302
36.1543     76.961   -47.162
36.6802     77.143   -48.077
37.2137     77.323   -49.091
37.7550     77.601   -50.153
38.3041     77.739   -51.191
38.8613     77.844   -52.208
39.4265     78.004   -53.269
40.0000     78.199   -54.426
40.5818     78.350   -55.688
41.1721     78.468   -56.982
41.7710     78.601   -58.208
42.3785     78.650   -59.236
42.9949     78.799   -60.097
43.6203     78.988   -60.906
44.2548     79.101   -61.793
44.8985     79.299   -62.779
45.5515     79.520   -63.837
46.2141     79.685   -64.967
46.8863     79.899   -66.119
47.5683     80.010   -67.223
48.2602     80.199   -68.307
48.9621     80.299   -69.402
49.6743     80.404   -70.401
50.3968     80.558   -71.260
51.1299     80.751   -72.105
51.8736     80.848   -73.027
52.6281     81.050   -74.004
53.3936     81.279   -75.053
54.1702     81.567   -76.171
54.9581     81.682   -77.334
55.7575     81.902   -78.652
56.5685     82.079   -80.125
57.3914     82.356   -81.563
58.2261     82.499   -83.017
59.0730     82.728   -84.665
59.9323     82.899   -86.327
60.8040     83.121   -87.910
61.6884     83.244   -89.504
62.5857     83.399   -91.050
63.4960     83.636   -92.532
64.4196     83.767   -94.053
65.3566     83.942   -95.616
66.3073     84.122   -97.260
67.2717     84.208   -98.984
68.2502     84.399  -100.708
69.2429     84.599  -102.489
70.2501     84.816  -104.306
71.2719     84.999  -106.127
72.3086     85.144  -108.006
73.3603     85.367  -109.958
74.4274     85.575  -112.040
75.5099     85.603  -114.161
76.6083     85.799  -116.357
77.7226     85.899  -118.585
78.8531     85.999  -120.662
80.0000     86.099  -122.718
81.1636     86.199  -124.801
82.3442     86.299  -126.866
83.5419     86.399  -128.798
84.7570     86.455  -130.639
85.9899     86.599  -132.491
87.2406     86.599  -134.484
88.5096     86.803  -136.534
89.7970     86.899  -138.642
91.1031     86.982  -140.898
92.4282     87.138  -143.306
93.7726     87.199  -145.534
95.1366     87.266  -148.019
96.5204     87.319  -150.644
97.9243     87.399  -153.371
99.3486     87.299  -156.093
100.794     87.182  -158.425
102.260     87.199  -160.400
103.747     87.199  -162.053
105.256     87.099  -163.932
106.787     87.299  -166.112
108.340     87.283  -168.241
109.916     87.285  -170.367
111.515     87.256  -172.639
113.137     87.205  -174.936
114.783     87.185  -177.232
116.452     87.099  -179.423
118.146     86.999   178.617
119.865     86.849   176.785
121.608     86.870   175.133
123.377     86.709   173.464
125.171     86.693   171.856
126.992     86.599   170.278
128.839     86.580   168.599
130.713     86.418   166.920
132.615     86.394   165.251
134.543     86.373   163.363
136.500     86.358   161.412
138.486     86.403   159.536
140.500     86.256   157.366
142.544     86.087   155.315
144.617     85.937   153.745
146.721     85.769   152.383
148.855     85.615   151.120
151.020     85.488   149.985
153.217     85.380   148.717
155.445     85.346   147.208
157.706     85.208   145.585
160.000     84.957   144.063
162.327     84.794   142.984
164.688     84.640   142.663
167.084     84.548   142.699
169.514     84.541   142.543
171.980     84.602   141.918
174.481     84.675   140.719
177.019     84.681   139.147
179.594     84.576   137.799
182.206     84.599   136.668
184.856     84.611   135.436
187.545     84.600   133.885
190.273     84.589   132.041
193.041     84.604   130.431
195.849     84.502   128.892
198.697     84.440   127.292
201.587     84.333   125.944
204.520     84.382   124.559
207.494     84.355   122.860
210.512     84.332   120.800
213.574     84.204   118.701
216.681     84.123   116.676
219.833     83.948   114.823
223.030     83.803   113.280
226.274     83.607   111.727
229.565     83.430   110.131
232.905     83.258   108.642
236.292     83.032   107.335
239.729     82.818   106.269
243.216     82.662   105.450
246.754     82.470   104.844
250.343     82.314   104.227
253.984     82.185   103.522
257.678     82.024   102.856
261.426     81.907   102.420
265.229     81.844   101.986
269.087     81.807   101.507
273.001     81.766   101.121
276.972     81.763   100.594
281.000     81.767    99.788
285.088     81.807    98.700
289.234     81.898    97.420
293.441     81.899    96.002
297.709     81.899    94.467
302.040     81.899    92.836
306.433     81.882    91.102
310.890     81.799    89.312
315.412     81.700    87.542
320.000     81.637    85.773
324.655     81.557    84.091
329.377     81.436    82.525
334.168     81.299    80.976
339.028     81.161    79.547
343.959     81.042    78.218
348.962     80.999    76.952
354.038     80.935    75.709
359.188     80.885    74.399
364.412     80.799    72.974
369.713     80.778    71.448
375.090     80.699    69.796
380.546     80.699    67.957
386.081     80.699    65.999
391.697     80.624    63.884
397.394     80.518    61.649
403.175     80.372    59.486
409.039     80.234    57.316
414.989     80.087    55.204
421.025     79.905    53.272
427.149     79.693    51.553
433.362     79.470    50.063
439.665     79.249    48.716
446.060     79.099    47.558
452.548     78.955    46.517
459.131     78.827    45.473
465.809     78.715    44.334
472.584     78.616    43.055
479.458     78.599    41.597
486.432     78.567    39.910
493.507     78.469    38.007
500.686     78.354    35.930
507.968     78.214    33.785
515.357     78.049    31.625
522.853     77.894    29.441
530.458     77.656    27.275
538.174     77.342    25.219
546.002     77.037    23.323
553.943     76.704    21.624
562.001     76.349    20.241
570.175     75.964    19.315
578.469     75.603    18.947
586.883     75.303    19.121
595.419     75.121    19.626
604.080     75.012    20.122
612.866     75.074    20.219
621.780     75.155    19.639
630.824     75.219    18.354
640.000     75.263    16.621
649.309     75.183    14.835
658.753     75.053    13.364
668.335     74.914    12.477
678.056     74.799    12.190
687.919     74.863    12.098
697.925     75.040    11.617
708.077     75.306    10.325
718.376     75.574     8.158
728.825     75.706     5.396
739.426     75.799     2.495
750.181     75.799    -0.148
761.093     75.726    -2.401
772.163     75.702    -4.420
783.394     75.799    -6.600
794.789     75.799    -9.200
806.349     75.728   -11.992
818.078     75.538   -14.535
829.977     75.315   -16.301
842.050     75.137   -17.106
854.298     75.138   -17.459
866.724     75.334   -18.296
879.330     75.616   -20.371
892.120     75.856   -23.550
905.097     75.899   -27.082
918.262     75.805   -30.808
931.618     75.558   -34.447
945.169     75.180   -37.566
958.917     74.704   -39.758
972.864     74.254   -40.816
987.015     73.948   -41.089
1001.37     73.822   -41.651
1015.94     73.894   -43.588
1030.71     73.767   -46.938
1045.71     73.463   -50.750
1060.92     72.970   -53.699
1076.35     72.487   -55.242
1092.00     72.166   -56.202
1107.89     71.942   -57.385
1124.00     71.774   -58.404
1140.35     71.839   -59.046
1156.94     72.236   -61.174
1173.77     72.703   -66.950
1190.84     72.754   -75.772
1208.16     72.216   -84.400
1225.73     71.299   -89.626
1243.56     70.740   -92.050
1261.65     70.699   -96.252
1280.00     70.507  -103.577
1298.62     69.956  -110.583
1317.51     69.551  -116.103
1336.67     69.599  -124.901
1356.11     69.203  -140.010
1375.84     67.497  -156.745
1395.85     64.403  -163.340
1416.15     62.331  -155.340
1436.75     62.826  -153.333
1457.65     62.987  -163.160
1478.85     62.382  -173.448
1500.36     62.199   175.150
1522.19     62.069   154.615
1544.33     61.012   126.095
1566.79     59.157    95.576
1589.58     57.809    63.865
1612.70     57.399    27.967
1636.16     56.477    -5.696
1659.95     54.964   -17.059
1684.10     57.202   -12.943
1708.60     60.331   -27.991
1733.45     61.090   -50.472
1758.66     60.456   -63.216
1784.24     60.013   -67.623
1810.19     59.967   -67.011
1836.52     61.339   -66.059
1863.24     62.392   -78.410
1890.34     60.823   -85.424
1917.83     60.979   -68.586
1945.73     63.967   -68.638
1974.03     64.984   -81.599
2002.74     65.538   -90.115
2031.87     65.768  -102.161
2061.43     64.713  -108.816
2091.41     64.544  -107.141
2121.83     64.895  -110.029
2152.69     65.298  -111.494
2184.01     66.028  -116.682
2215.77     66.355  -120.775
2248.00     67.582  -126.746
2280.70     67.793  -141.259
2313.87     67.065  -149.249
2347.53     66.907  -157.294
2381.68     66.108  -166.451
2416.32     65.399  -175.014
2451.46     63.502   176.294
2487.12     61.602  -177.389
2523.30     61.183  -173.769
2560.00     61.315  -167.270
2597.24     62.883  -167.730
2635.01     64.127  -178.579
2673.34     64.236   164.683
2712.23     63.546   144.785
2751.68     60.659   120.784
2791.70     54.609   132.918
2832.31     51.850   157.994
2873.50     54.044  -170.565
2915.30     57.230  -174.368
2957.70     60.521   167.070
3000.72     61.301   121.234
3044.37     58.752    75.580
3088.65     59.021    31.367
3133.58     61.128   -28.869
3179.16     61.508   -71.893
3225.40     61.691   -95.122
3272.31     61.879  -102.191
3319.91     63.254  -105.170
3368.20     66.633  -105.606
3417.19     68.780  -127.576
3466.89     69.058  -144.338
3517.32     69.232  -156.739
3568.48     69.058  -167.807
3620.39     68.777  -171.295
3673.05     69.616  -179.619
3726.47     69.459   170.088
3780.67     69.428   162.785
3835.67     69.647   151.798
3891.46     68.918   143.356
3948.06     68.162   136.066
4005.49     67.496   131.112
4063.75     66.916   125.722
4122.86     65.848   124.555
4182.82     66.225   124.036
4243.66     66.201   118.160
4305.39     66.129   110.112
4368.01     65.537   103.051
4431.55     65.975    98.218
4496.01     65.246    82.641
4561.40     64.352    70.912
4627.75     63.012    49.931
4695.06     58.985    43.067
4763.35     54.524    58.517
4832.64     51.675    76.521
4902.93     50.763   107.883
4974.24     52.365   116.897
5046.60     53.560   124.885
5120.00     55.704   121.595
5194.47     57.747    95.283
5270.03     53.731    80.956
5346.68     52.429    39.242
5424.45     53.669  -154.800
5503.35     54.445   135.767
5583.40     56.527   134.907
5664.61     58.518   132.381
5747.01     60.187   123.624
5830.60     61.290   111.040
5915.41     61.123   101.120
6001.45     61.208    95.849
6088.74     61.899    85.424
6177.30     61.190    69.061
6267.15     59.301    61.428
6358.31     58.599    57.571
6450.80     58.333    46.018
6544.62     57.174    36.578
6639.82     55.865    29.531
6736.40     53.591     8.890
6834.38     48.561  -107.144
6933.79     50.609   125.433
7034.64     52.671   105.161
7136.96     55.339   104.115
7240.77     57.256    88.832
7346.09     57.879    75.613
7452.94     58.352    61.107
7561.35     57.848    44.638
7671.33     56.745    30.148
7782.91     55.340    20.861
7896.12     53.618    16.220
8010.97     52.204    11.036
8127.49     48.756     4.235
8245.71     46.077     3.808
8365.65     42.255    19.933
8487.33     41.828    71.905
8610.78     45.936    90.706
8736.03     50.132    87.265
8863.09     52.659    60.037
8992.01     52.902    41.562
9122.80     53.467    29.763
9255.50     53.496    16.917
9390.12     52.831     9.070
9526.70     51.877     0.667
9665.27     50.397   -12.325
9805.86     48.486   -43.754
9948.49     45.151  -105.835
10093.2     42.926  -162.703
10240.0     46.174   143.916
10388.9     49.051   106.321
10540.1     50.663    81.756
10693.4     51.697    63.159
10848.9     52.291    50.188
11006.7     52.954    37.153
11166.8     52.634    23.284
11329.2     52.056     6.689
11494.0     51.253   -10.662
11661.2     50.626   -31.465
11830.8     48.600   -57.254
12002.9     45.821  -100.539
12177.5     42.010  -173.862
12354.6     45.232   104.209
12534.3     47.430    63.810
12716.6     48.788    41.005
12901.6     49.495    15.649
13089.2     49.547   -12.409
13279.6     48.394   -35.311
13472.8     46.070   -60.382
13668.8     42.779   -91.565
13867.6     38.777  -139.292
14069.3     37.435   157.962
14273.9     42.288    87.623
14481.5     45.219    39.344
14692.2     46.866    14.528
14905.9     47.381    -9.338
15122.7     46.280   -35.656
15342.7     44.655   -72.170
15565.8     42.454  -115.874
15792.2     40.287  -178.459
16021.9     41.830   115.546
16255.0     44.609    60.981
16491.4     45.305    15.721
16731.3     44.588   -25.959
16974.7     43.434   -66.815
17221.6     40.894  -115.452
17472.1     38.842   167.753
17726.2     40.395    91.616
17984.0     42.567    33.781
18245.6     43.822   -15.035
18511.0     43.873   -51.707
18780.2     42.228   -97.431
19053.4     39.288  -161.272
19330.5     36.952   115.885
19611.7     37.338    52.665
19897.0     37.084     8.591
20186.4     36.845   -33.495
20480.0     36.606   -75.583
20777.9     36.366  -117.666
21080.1     36.127  -159.754
21386.7     35.888   158.158
21697.8     35.648   116.076
22013.4     35.409    73.991
22333.6     35.170    31.906
22658.4     34.931   -10.185
22988.0     34.691   -52.267
23322.4     34.452   -94.348
23661.6     34.213  -136.437
24005.8     33.973  -178.518
24355.0     33.734   139.401
24709.2     33.495    97.309
25068.6     33.255    55.224
25433.2     33.016    13.136
25803.2     32.777   -28.942
26178.5     32.538   -71.029
26559.3     32.298  -113.111
26945.6     32.059  -155.198
27337.5     31.820   162.714
27735.2     31.580   120.636
28138.6     31.341    78.548
28547.9     31.102    36.465
28963.1     30.862    -5.624
29384.4     30.623   -47.707
29811.8     30.384   -89.793
30245.4     30.144  -131.880
30685.3     29.905  -173.968
31131.7     29.666   143.954
31584.5     29.427   101.867
32043.9     29.187    59.781
32510.0     28.948    17.697
32982.8     28.709   -24.394
33462.6     28.469   -66.474
33949.3     28.230  -108.561
34443.1     27.991  -150.646
34944.1     27.751   167.270
35452.4     27.512   125.187
35968.0     27.273    83.095
36491.2     27.034    41.013
37022.0     26.794    -1.070
37560.5     26.555   -43.155
38106.8     26.316   -85.242
38661.1     26.076  -127.325
39223.4     25.837  -169.413
39793.9     25.598   148.500
