Freq[Hz]     dBSPL  Phase[Deg]
5.00000     40.701    39.700
5.07273     40.984    39.444
5.14651     41.268    39.189
5.22137     41.552    38.936
5.29732     41.823    38.673
5.37437     42.087    38.406
5.45254     42.351    38.139
5.53185     42.619    37.868
5.61231     42.894    37.588
5.69394     43.168    37.309
5.77676     43.445    37.026
5.86079     43.729    36.734
5.94604     44.014    36.442
6.03252     44.289    36.146
6.12027     44.548    35.842
6.20929     44.807    35.539
6.29961     45.071    35.228
6.39124     45.338    34.910
6.48420     45.606    34.594
6.57851     45.881    34.267
6.67420     46.157    33.938
6.77128     46.427    33.607
6.86977     46.672    33.265
6.96969     46.917    32.925
7.07107     47.197    32.574
7.17392     47.490    32.220
7.27827     47.775    31.863
7.38413     48.035    31.497
7.49154     48.294    31.131
7.60050     48.561    30.753
7.71105     48.828    30.375
7.82321     49.100    29.988
7.93701     49.374    29.597
8.05245     49.651    29.200
8.16958     49.933    28.797
8.28841     50.216    28.390
8.40896     50.505    27.974
8.53128     50.783    27.555
8.65537     51.029    27.126
8.78126     51.276    26.695
8.90899     51.528    26.254
9.03857     51.797    25.810
9.17004     52.108    25.356
9.30342     52.399    24.899
9.43874     52.663    24.433
9.57603     52.929    23.961
9.71532     53.199    23.483
9.85663     53.472    22.995
10.0000     53.747    22.506
10.1455     54.028    22.002
10.2930     54.293    21.496
10.4427     54.519    20.980
10.5946     54.787    20.457
10.7487     55.079    19.930
10.9051     55.377    19.390
11.0637     55.652    18.845
11.2246     55.891    18.292
11.3879     56.134    17.729
11.5535     56.401    17.161
11.7216     56.717    16.584
11.8921     56.980    15.996
12.0650     57.234    15.401
12.2405     57.491    14.799
12.4186     57.752    14.185
12.5992     58.016    13.563
12.7825     58.282    12.935
12.9684     58.552    12.295
13.1570     58.825    11.645
13.3484     59.102    10.986
13.5426     59.381    10.320
13.7395     59.664     9.643
13.9394     59.951     8.954
14.1421     60.241     8.256
14.3478     60.496     7.549
14.5565     60.732     6.832
14.7683     61.033     6.104
14.9831     61.337     5.365
15.2010     61.565     4.615
15.4221     61.858     3.853
15.6464     62.115     3.081
15.8740     62.394     2.299
16.1049     62.676     1.504
16.3392     62.946     0.699
16.5768     63.247    -0.118
16.8179     63.486    -0.948
17.0626     63.729    -1.790
17.3107     63.999    -2.644
17.5625     64.322    -3.510
17.8180     64.573    -4.389
18.0771     64.828    -5.281
18.3401     65.085    -6.185
18.6068     65.345    -7.103
18.8775     65.608    -8.035
19.1521     65.936    -8.979
19.4306     66.244    -9.938
19.7133     66.517   -10.909
20.0000     66.693   -11.896
20.2909     66.989   -12.890
20.5860     67.390   -13.871
20.8855     67.765   -14.894
21.1893     68.137   -15.992
21.4975     68.397   -17.177
21.8102     68.679   -18.439
22.1274     68.901   -19.710
22.4492     69.109   -20.914
22.7758     69.409   -21.967
23.1071     69.595   -22.810
23.4432     69.876   -23.512
23.7841     70.126   -24.181
24.1301     70.403   -24.973
24.4811     70.677   -25.925
24.8372     71.051   -27.040
25.1984     71.278   -28.202
25.5649     71.532   -29.314
25.9368     71.774   -30.318
26.3141     71.925   -31.218
26.6968     72.078   -32.046
27.0851     72.267   -32.816
27.4791     72.498   -33.508
27.8788     72.851   -34.067
28.2843     73.013   -34.524
28.6957     73.177   -34.939
29.1131     73.444   -35.410
29.5365     73.628   -35.969
29.9661     73.886   -36.595
30.4020     74.121   -37.221
30.8442     74.359   -37.832
31.2929     74.633   -38.475
31.7480     74.898   -39.205
32.2098     75.167   -40.013
32.6783     75.394   -40.798
33.1536     75.607   -41.492
33.6359     75.753   -42.122
34.1251     76.081   -42.782
34.6215     76.302   -43.536
35.1250     76.549   -44.348
35.6359     76.753   -45.149
36.1543     76.961   -45.935
36.6802     77.243   -46.767
37.2137     77.485   -47.688
37.7550     77.711   -48.649
38.3041     77.939   -49.576
38.8613     78.055   -50.474
39.4265     78.304   -51.408
40.0000     78.599   -52.429
40.5818     78.750   -53.548
41.1721     78.968   -54.690
41.7710     79.101   -55.757
42.3785     79.223   -56.618
42.9949     79.399   -57.305
43.6203     79.588   -57.934
44.2548     79.785   -58.634
44.8985     79.999   -59.425
45.5515     80.220   -60.281
46.2141     80.385   -61.204
46.8863     80.599   -62.143
47.5683     80.799   -63.026
48.2602     80.999   -63.884
48.9621     81.099   -64.748
49.6743     81.269   -65.510
50.3968     81.458   -66.125
51.1299     81.651   -66.722
51.8736     81.848   -67.389
52.6281     82.050   -68.107
53.3936     82.279   -68.892
54.1702     82.567   -69.740
54.9581     82.775   -70.629
55.7575     83.002   -71.668
56.5685     83.226   -72.856
57.3914     83.456   -74.006
58.2261     83.699   -75.167
59.0730     83.928   -76.517
59.9323     84.099   -77.877
60.8040     84.321   -79.153
61.6884     84.499   -80.436
62.5857     84.609   -81.667
63.4960     84.897   -82.829
64.4196     84.976   -84.026
65.3566     85.242   -85.262
66.3073     85.422   -86.573
67.2717     85.577   -87.962
68.2502     85.762   -89.346
69.2429     85.907   -90.783
70.2501     86.116   -92.251
71.2719     86.361   -93.721
72.3086     86.544   -95.244
73.3603     86.767   -96.836
74.4274     86.975   -98.555
75.5099     87.003  -100.308
76.6083     87.199  -102.132
77.7226     87.299  -103.984
78.8531     87.399  -105.681
80.0000     87.554  -107.353
81.1636     87.662  -109.049
82.3442     87.699  -110.721
83.5419     87.799  -112.257
84.7570     87.899  -113.697
85.9899     87.999  -115.143
87.2406     88.099  -116.727
88.5096     88.203  -118.362
89.7970     88.299  -120.050
91.1031     88.482  -121.882
92.4282     88.599  -123.860
93.7726     88.599  -125.654
95.1366     88.666  -127.698
96.5204     88.719  -129.877
97.9243     88.799  -132.153
99.3486     88.699  -134.416
100.794     88.682  -136.286
102.260     88.675  -137.788
103.747     88.599  -138.964
105.256     88.599  -140.358
106.787     88.699  -142.045
108.340     88.699  -143.673
109.916     88.699  -145.293
111.515     88.756  -147.049
113.137     88.699  -148.820
114.783     88.685  -150.584
116.452     88.599  -152.233
118.146     88.499  -153.642
119.865     88.349  -154.914
121.608     88.370  -155.999
123.377     88.299  -157.094
125.171     88.193  -158.120
126.992     88.199  -159.111
128.839     88.180  -160.199
130.713     88.018  -161.287
132.615     88.081  -162.366
134.543     88.056  -163.660
136.500     88.098  -165.019
138.486     88.163  -166.379
140.500     88.072  -168.007
142.544     87.953  -169.505
144.617     87.857  -170.604
146.721     87.752  -171.532
148.855     87.665  -172.368
151.020     87.554  -173.120
153.217     87.513  -174.047
155.445     87.546  -175.248
157.706     87.425  -176.591
160.000     87.257  -177.829
162.327     87.127  -178.631
164.688     86.990  -178.694
167.084     86.920  -178.366
169.514     86.927  -178.182
171.980     87.002  -178.434
174.481     87.092  -179.253
177.019     87.110   179.593
179.594     87.033   178.734
182.206     87.036   178.177
184.856     87.068   177.563
187.545     87.086   176.632
190.273     87.089   175.494
193.041     87.118   174.628
195.849     87.065   173.870
198.697     87.040   173.139
201.587     86.996   172.693
204.520     87.082   172.236
207.494     87.117   171.488
210.512     87.176   170.455
213.574     87.154   169.390
216.681     87.135   168.338
219.833     87.048   167.504
223.030     87.047   167.010
226.274     86.985   166.458
229.565     86.974   165.794
232.905     86.969   165.151
236.292     86.888   164.583
239.729     86.888   164.163
243.216     86.918   163.845
246.754     86.950   163.585
250.343     86.994   163.173
253.984     86.955   162.531
257.678     86.994   161.815
261.426     87.043   161.251
265.229     87.084   160.661
269.087     87.107   160.045
273.001     87.116   159.585
276.972     87.163   159.080
281.000     87.167   158.419
285.088     87.199   157.631
289.234     87.234   156.797
293.441     87.299   155.968
297.709     87.299   155.141
302.040     87.299   154.322
306.433     87.299   153.516
310.890     87.245   152.751
315.412     87.200   152.035
320.000     87.199   151.316
324.655     87.199   150.655
329.377     87.182   150.061
334.168     87.099   149.485
339.028     87.099   148.951
343.959     87.099   148.439
348.962     87.099   147.935
354.038     87.099   147.425
359.188     87.099   146.879
364.412     87.099   146.290
369.713     87.099   145.674
375.090     87.099   145.034
380.546     87.099   144.359
386.081     87.159   143.682
391.697     87.099   142.996
397.394     87.099   142.318
403.175     87.066   141.706
409.039     86.999   141.138
414.989     86.999   140.633
421.025     86.999   140.222
427.149     86.949   139.911
433.362     86.899   139.703
439.665     86.899   139.591
446.060     86.899   139.575
452.548     86.899   139.637
459.131     86.899   139.750
465.809     86.899   139.883
472.584     86.993   139.993
479.458     87.073   140.046
486.432     87.194   140.015
493.507     87.284   139.877
500.686     87.364   139.623
507.968     87.444   139.266
515.357     87.534   138.825
522.853     87.656   138.309
530.458     87.699   137.737
538.174     87.699   137.139
546.002     87.737   136.525
553.943     87.799   135.887
562.001     87.799   135.227
570.175     87.799   134.552
578.469     87.799   133.872
586.883     87.799   133.215
595.419     87.799   132.595
604.080     87.799   132.002
612.866     87.799   131.427
621.780     87.799   130.841
630.824     87.843   130.199
640.000     87.899   129.469
649.309     87.891   128.635
658.753     87.799   127.695
668.335     87.780   126.694
678.056     87.676   125.772
687.919     87.553   125.031
697.925     87.410   124.564
708.077     87.299   124.403
718.376     87.224   124.467
728.825     87.168   124.608
739.426     87.099   124.651
750.181     87.099   124.483
761.093     87.099   124.111
772.163     87.002   123.665
783.394     86.912   123.325
794.789     86.743   123.253
806.349     86.551   123.515
818.078     86.372   124.045
829.977     86.233   124.692
842.050     86.111   125.329
854.298     85.978   125.936
866.724     85.852   126.587
879.330     85.728   127.430
892.120     85.579   128.731
905.097     85.441   130.771
918.262     85.349   133.010
931.618     85.299   135.112
945.169     85.299   137.041
958.917     85.299   138.800
972.864     85.299   140.378
987.015     85.299   141.771
1001.37     85.386   143.032
1015.94     85.399   144.183
1030.71     85.459   145.144
1045.71     85.556   145.720
1060.92     85.661   145.693
1076.35     85.699   145.158
1092.00     85.659   144.570
1107.89     85.599   144.409
1124.00     85.599   144.713
1140.35     85.688   144.876
1156.94     85.888   144.167
1173.77     86.056   142.519
1190.84     86.099   140.533
1208.16     86.099   138.790
1225.73     86.113   137.231
1243.56     86.234   135.298
1261.65     86.363   132.648
1280.00     86.419   129.544
1298.62     86.499   126.498
1317.51     86.526   123.590
1336.67     86.682   120.308
1356.11     86.890   116.046
1375.84     87.039   110.675
1395.85     87.072   104.729
1416.15     86.985    99.161
1436.75     86.881    94.683
1457.65     86.782    90.679
1478.85     86.696    86.771
1500.36     86.599    82.901
1522.19     86.599    78.796
1544.33     86.507    74.343
1566.79     86.443    69.701
1589.58     86.366    64.737
1612.70     86.224    59.120
1636.16     85.956    53.212
1659.95     85.517    48.039
1684.10     85.011    43.902
1708.60     84.523    40.389
1733.45     84.067    37.652
1758.66     83.756    35.534
1784.24     83.619    32.801
1810.19     83.454    28.793
1836.52     83.057    24.310
1863.24     82.524    21.016
1890.34     82.115    19.567
1917.83     81.999    17.922
1945.73     81.873    15.245
1974.03     81.711    13.743
2002.74     81.934    12.085
2031.87     82.134     7.483
2061.43     81.895     2.828
2091.41     81.621     0.979
2121.83     81.693    -0.443
2152.69     81.922    -3.539
2184.01     82.116    -7.364
2215.77     82.283   -11.900
2248.00     82.262   -16.702
2280.70     82.212   -19.799
2313.87     82.409   -22.972
2347.53     82.554   -27.352
2381.68     82.631   -31.110
2416.32     82.853   -35.000
2451.46     83.072   -40.172
2487.12     83.099   -45.383
2523.30     83.213   -49.726
2560.00     83.276   -55.516
2597.24     83.047   -60.773
2635.01     82.828   -64.187
2673.34     82.719   -66.771
2712.23     82.852   -69.618
2751.68     83.039   -73.433
2791.70     83.034   -78.204
2832.31     82.815   -80.784
2873.50     82.799   -82.150
2915.30     82.954   -82.781
2957.70     83.487   -84.789
3000.72     83.769   -88.956
3044.37     83.833   -91.891
3088.65     84.110   -93.705
3133.58     84.613   -96.356
3179.16     85.130  -100.576
3225.40     85.349  -105.878
3272.31     85.511  -110.247
3319.91     85.667  -114.172
3368.20     85.855  -117.684
3417.19     86.081  -121.667
3466.89     86.206  -126.048
3517.32     86.299  -129.655
3568.48     86.388  -132.656
3620.39     86.643  -136.018
3673.05     86.861  -140.077
3726.47     87.023  -143.929
3780.67     87.145  -148.133
3835.67     87.252  -152.045
3891.46     87.359  -155.729
3948.06     87.488  -159.751
4005.49     87.540  -163.889
4063.75     87.680  -167.883
4122.86     87.699  -172.297
4182.82     87.667  -177.288
4243.66     87.599   178.510
4305.39     87.487   174.458
4368.01     87.354   170.061
4431.55     87.062   165.673
4496.01     86.742   162.152
4561.40     86.376   158.877
4627.75     85.910   156.438
4695.06     85.514   155.547
4763.35     85.208   155.141
4832.64     85.071   155.247
4902.93     85.014   154.961
4974.24     84.929   155.946
5046.60     85.378   157.567
5120.00     86.046   156.137
5194.47     86.546   152.735
5270.03     87.063   148.059
5346.68     87.282   140.932
5424.45     87.003   134.988
5503.35     86.717   130.695
5583.40     86.349   126.452
5664.61     85.899   123.928
5747.01     85.622   121.923
5830.60     85.269   119.300
5915.41     84.660   118.503
6001.45     84.366   120.024
6088.74     84.399   121.156
6177.30     84.615   122.032
6267.15     85.065   121.123
6358.31     85.361   119.304
6450.80     85.795   117.591
6544.62     86.196   114.055
6639.82     86.580   110.203
6736.40     86.858   104.777
6834.38     86.842    99.141
6933.79     86.604    94.532
7034.64     86.390    91.109
7136.96     86.204    88.899
7240.77     86.199    87.003
7346.09     86.199    84.467
7452.94     86.341    82.048
7561.35     86.504    78.639
7671.33     86.631    74.926
7782.91     86.689    70.228
7896.12     86.495    65.663
8010.97     86.260    62.013
8127.49     85.986    58.777
8245.71     85.929    56.447
8365.65     85.830    53.633
8487.33     85.799    51.077
8610.78     85.720    47.879
8736.03     85.689    45.108
8863.09     85.614    42.852
8992.01     85.764    40.300
9122.80     85.848    36.852
9255.50     85.985    32.786
9390.12     85.858    28.516
9526.70     85.705    24.219
9665.27     85.373    21.116
9805.86     85.083    19.038
9948.49     84.933    18.037
10093.2     84.996    16.892
10240.0     85.177    15.216
10388.9     85.423    12.205
10540.1     85.666     7.682
10693.4     85.694     2.110
10848.9     85.443    -3.763
11006.7     84.924    -8.009
11166.8     84.420   -10.218
11329.2     84.137   -11.371
11494.0     84.140   -12.740
11661.2     84.199   -15.674
11830.8     84.113   -19.791
12002.9     83.797   -23.423
12177.5     83.353   -25.548
12354.6     83.039   -26.054
12534.3     82.999   -25.955
12716.6     83.099   -26.565
12901.6     83.344   -27.927
13089.2     83.746   -30.474
13279.6     84.114   -34.447
13472.8     84.413   -38.768
13668.8     84.754   -43.489
13867.6     85.099   -49.525
14069.3     85.284   -56.527
14273.9     85.391   -63.440
14481.5     85.399   -70.475
14692.2     85.392   -78.097
14905.9     85.193   -85.816
15122.7     84.886   -92.608
15342.7     84.678   -99.071
15565.8     84.483  -106.192
15792.2     84.150  -113.107
16021.9     83.771  -119.545
16255.0     83.341  -126.182
16491.4     82.793  -132.182
16731.3     82.262  -136.663
16974.7     81.822  -140.947
17221.6     81.372  -145.864
17472.1     80.782  -149.923
17726.2     80.230  -152.240
17984.0     79.842  -153.793
18245.6     79.699  -155.481
18511.0     79.781  -158.618
18780.2     79.772  -163.860
19053.4     79.519  -169.292
19330.5     79.224  -174.020
19611.7     78.928  -179.011
19897.0     78.621   176.838
20186.4     78.502   172.339
20480.0     78.383   167.839
20777.9     78.264   163.340
21080.1     78.145   158.840
21386.7     78.025   154.341
21697.8     77.906   149.841
22013.4     77.787   145.341
22333.6     77.668   140.842
22658.4     77.548   136.341
22988.0     77.429   131.843
23322.4     77.310   127.343
23661.6     77.191   122.843
24005.8     77.072   118.344
24355.0     76.952   113.844
24709.2     76.833   109.345
25068.6     76.714   104.845
25433.2     76.595   100.344
25803.2     76.475    95.846
26178.5     76.356    91.346
26559.3     76.237    86.847
26945.6     76.118    82.347
27337.5     75.998    77.847
27735.2     75.879    73.349
28138.6     75.760    68.848
28547.9     75.641    64.349
28963.1     75.522    59.849
29384.4     75.402    55.350
29811.8     75.283    50.850
30245.4     75.164    46.350
30685.3     75.045    41.851
31131.7     74.925    37.351
31584.5     74.806    32.852
32043.9     74.687    28.352
32510.0     74.568    23.852
32982.8     74.449    19.353
33462.6     74.329    14.853
33949.3     74.210    10.354
34443.1     74.091     5.854
34944.1     73.972     1.354
35452.4     73.852    -3.145
35968.0     73.733    -7.645
36491.2     73.614   -12.144
37022.0     73.495   -16.644
37560.5     73.375   -21.144
38106.8     73.256   -25.643
38661.1     73.137   -30.143
39223.4     73.018   -34.642
39793.9     72.899   -39.142
