Freq[Hz]     dBSPL  Phase[Deg]
5.00000     33.184   116.185
5.07273     33.499   115.666
5.14651     33.813   115.145
5.22137     34.128   114.621
5.29732     34.431   114.084
5.37437     34.726   113.538
5.45254     35.021   112.990
5.53185     35.320   112.432
5.61231     35.626   111.861
5.69394     35.931   111.287
5.77676     36.239   110.705
5.86079     36.555   110.109
5.94604     36.870   109.509
6.03252     37.176   108.901
6.12027     37.466   108.279
6.20929     37.757   107.654
6.29961     38.051   107.017
6.39124     38.350   106.369
6.48420     38.649   105.717
6.57851     38.955   105.049
6.67420     39.263   104.374
6.77128     39.563   103.693
6.86977     39.840   102.995
6.96969     40.116   102.293
7.07107     40.426   101.576
7.17392     40.751   100.851
7.27827     41.067   100.117
7.38413     41.358    99.368
7.49154     41.649    98.614
7.60050     41.946    97.842
7.71105     42.244    97.064
7.82321     42.547    96.272
7.93701     42.852    95.470
8.05245     43.161    94.656
8.16958     43.473    93.830
8.28841     43.788    92.994
8.40896     44.108    92.142
8.53128     44.417    91.281
8.65537     44.694    90.404
8.78126     44.973    89.518
8.90899     45.256    88.615
9.03857     45.556    87.703
9.17004     45.897    86.774
9.30342     46.220    85.835
9.43874     46.515    84.880
9.57603     46.812    83.912
9.71532     47.112    82.931
9.85663     47.417    81.933
10.0000     47.723    80.925
10.1455     48.035    79.896
10.2930     48.331    78.856
10.4427     48.589    77.800
10.5946     48.887    76.728
10.7487     49.211    75.644
10.9051     49.540    74.539
11.0637     49.845    73.421
11.2246     50.116    72.287
11.3879     50.390    71.134
11.5535     50.688    69.967
11.7216     51.035    68.783
11.8921     51.329    67.578
12.0650     51.614    66.359
12.2405     51.902    65.123
12.4186     52.195    63.865
12.5992     52.489    62.591
12.7825     52.787    61.300
12.9684     53.088    59.989
13.1570     53.392    58.657
13.3484     53.700    57.307
13.5426     54.010    55.939
13.7395     54.324    54.551
13.9394     54.642    53.140
14.1421     54.964    51.709
14.3478     55.249    50.259
14.5565     55.517    48.787
14.7683     55.848    47.295
14.9831     56.184    45.780
15.2010     56.443    44.242
15.4221     56.767    42.682
15.6464     57.055    41.099
15.8740     57.365    39.494
16.1049     57.678    37.866
16.3392     57.979    36.214
16.5768     58.311    34.537
16.8179     58.582    32.837
17.0626     58.856    31.111
17.3107     59.156    29.360
17.5625     59.511    27.584
17.8180     59.794    25.782
18.0771     60.079    23.954
18.3401     60.367    22.100
18.6068     60.658    20.218
18.8775     60.953    18.309
19.1521     61.311    16.372
19.4306     61.651    14.407
19.7133     61.955    12.414
20.0000     62.162    10.392
20.2909     62.489     8.347
20.5860     62.890     6.147
20.8855     63.262     3.832
21.1893     63.551     1.468
21.4975     63.867    -0.949
21.8102     64.179    -3.410
22.1274     64.444    -5.840
22.4492     64.709    -8.164
22.7758     65.009   -10.294
23.1071     65.195   -12.172
23.4432     65.478   -13.863
23.7841     65.821   -15.475
24.1301     66.193   -17.165
24.4811     66.477   -18.973
24.8372     66.934   -20.900
25.1984     67.259   -22.835
25.5649     67.532   -24.678
25.9368     67.856   -26.375
26.3141     68.110   -27.929
26.6968     68.368   -29.376
27.0851     68.567   -30.731
27.4791     68.898   -31.974
27.8788     69.251   -33.052
28.2843     69.436   -33.998
28.6957     69.713   -34.874
29.1131     70.044   -35.779
29.5365     70.359   -36.748
29.9661     70.686   -37.761
30.4020     71.021   -38.750
30.8442     71.259   -39.701
31.2929     71.579   -40.666
31.7480     71.898   -41.698
32.2098     72.262   -42.791
32.6783     72.517   -43.844
33.1536     72.861   -44.789
33.6359     73.053   -45.657
34.1251     73.399   -46.540
34.6215     73.702   -47.505
35.1250     73.949   -48.516
35.6359     74.253   -49.503
36.1543     74.461   -50.466
36.6802     74.759   -51.464
37.2137     75.085   -52.541
37.7550     75.401   -53.651
38.3041     75.599   -54.717
38.8613     75.844   -55.748
39.4265     76.070   -56.807
40.0000     76.399   -57.947
40.5818     76.632   -59.178
41.1721     76.811   -60.426
41.7710     77.007   -61.595
42.3785     77.150   -62.552
42.9949     77.399   -63.331
43.6203     77.599   -64.047
44.2548     77.801   -64.830
44.8985     78.099   -65.700
45.5515     78.320   -66.633
46.2141     78.585   -67.628
46.8863     78.799   -68.637
47.5683     78.999   -69.588
48.2602     79.299   -70.511
48.9621     79.399   -71.437
49.6743     79.569   -72.259
50.3968     79.758   -72.933
51.1299     80.013   -73.587
51.8736     80.248   -74.310
52.6281     80.450   -75.082
53.3936     80.679   -75.920
54.1702     80.967   -76.820
54.9581     81.182   -77.760
55.7575     81.502   -78.849
56.5685     81.679   -80.087
57.3914     81.956   -81.285
58.2261     82.199   -82.495
59.0730     82.428   -83.893
59.9323     82.699   -85.302
60.8040     82.921   -86.626
61.6884     83.044   -87.958
62.5857     83.209   -89.236
63.4960     83.497   -90.447
64.4196     83.667   -91.694
65.3566     83.842   -92.979
66.3073     84.116   -94.340
67.2717     84.208   -95.780
68.2502     84.399   -97.215
69.2429     84.599   -98.704
70.2501     84.816  -100.226
71.2719     85.061  -101.750
72.3086     85.244  -103.329
73.3603     85.467  -104.978
74.4274     85.675  -106.754
75.5099     85.722  -108.567
76.6083     85.918  -110.452
77.7226     86.022  -112.367
78.8531     86.099  -114.130
80.0000     86.254  -115.869
81.1636     86.399  -117.634
82.3442     86.499  -119.377
83.5419     86.512  -120.988
84.7570     86.655  -122.505
85.9899     86.799  -124.031
87.2406     86.799  -125.698
88.5096     87.003  -127.420
89.7970     87.099  -129.199
91.1031     87.182  -131.125
92.4282     87.399  -133.203
93.7726     87.399  -135.100
95.1366     87.466  -137.253
96.5204     87.519  -139.546
97.9243     87.599  -141.942
99.3486     87.499  -144.332
100.794     87.382  -146.336
102.260     87.399  -147.979
103.747     87.369  -149.304
105.256     87.299  -150.856
106.787     87.399  -152.711
108.340     87.483  -154.518
109.916     87.399  -156.326
111.515     87.456  -158.283
113.137     87.399  -160.268
114.783     87.341  -162.259
116.452     87.199  -164.151
118.146     87.099  -165.818
119.865     86.949  -167.366
121.608     86.963  -168.743
123.377     86.799  -170.147
125.171     86.693  -171.502
126.992     86.599  -172.839
128.839     86.580  -174.291
130.713     86.411  -175.759
132.615     86.381  -177.231
134.543     86.273  -178.938
136.500     86.238   179.281
138.486     86.223   177.542
140.500     86.072   175.509
142.544     85.820   173.594
144.617     85.617   172.144
146.721     85.385   170.904
148.855     85.148   169.782
151.020     84.954   168.806
153.217     84.747   167.726
155.445     84.629   166.442
157.706     84.375   165.089
160.000     84.029   163.913
162.327     83.710   163.239
164.688     83.440   163.345
167.084     83.248   163.896
169.514     83.127   164.352
171.980     83.059   164.389
174.481     83.025   163.840
177.019     82.981   162.949
179.594     82.790   162.357
182.206     82.674   162.061
184.856     82.568   161.679
187.545     82.472   160.934
190.273     82.426   159.962
193.041     82.332   159.231
195.849     82.202   158.578
198.697     82.053   157.929
201.587     81.883   157.539
204.520     81.832   157.117
207.494     81.755   156.389
210.512     81.665   155.368
213.574     81.504   154.313
216.681     81.373   153.276
219.833     81.171   152.473
223.030     80.981   152.039
226.274     80.785   151.584
229.565     80.597   151.065
232.905     80.402   150.622
236.292     80.188   150.315
239.729     80.008   150.240
243.216     79.873   150.333
246.754     79.720   150.543
250.343     79.604   150.675
253.984     79.505   150.605
257.678     79.384   150.466
261.426     79.271   150.488
265.229     79.244   150.440
269.087     79.207   150.300
273.001     79.166   150.236
276.972     79.063   150.037
281.000     79.067   149.600
285.088     79.049   148.939
289.234     78.998   148.131
293.441     78.999   147.235
297.709     78.917   146.265
302.040     78.824   145.238
306.433     78.666   144.169
310.890     78.514   143.102
315.412     78.325   142.081
320.000     78.153   141.083
324.655     77.982   140.196
329.377     77.736   139.453
334.168     77.492   138.828
339.028     77.222   138.370
343.959     76.985   138.065
348.962     76.807   137.881
354.038     76.621   137.781
359.188     76.435   137.711
364.412     76.246   137.622
369.713     76.078   137.462
375.090     75.932   137.192
380.546     75.812   136.781
386.081     75.693   136.236
391.697     75.512   135.556
397.394     75.293   134.776
403.175     75.059   133.998
409.039     74.799   133.241
414.989     74.537   132.577
421.025     74.228   132.100
427.149     73.862   131.864
433.362     73.481   131.921
439.665     73.082   132.337
446.060     72.734   133.146
452.548     72.377   134.382
459.131     72.016   136.113
465.809     71.699   138.386
472.584     71.466   141.105
479.458     71.399   144.142
486.432     71.473   147.332
493.507     71.684   150.322
500.686     72.019   152.711
507.968     72.459   154.145
515.357     72.949   154.538
522.853     73.456   153.948
530.458     73.866   152.530
538.174     74.128   150.570
546.002     74.351   148.360
553.943     74.494   146.113
562.001     74.599   144.049
570.175     74.651   142.314
578.469     74.721   140.923
586.883     74.842   139.773
595.419     75.021   138.625
604.080     75.261   137.208
612.866     75.528   135.342
621.780     75.799   132.960
630.824     76.035   130.115
640.000     76.215   126.998
649.309     76.307   123.776
658.753     76.399   120.541
668.335     76.310   117.393
678.056     76.226   114.628
687.919     76.056   112.397
697.925     75.873   110.900
708.077     75.753   110.270
718.376     75.770   110.343
728.825     75.882   110.668
739.426     76.154   110.584
750.181     76.556   109.553
761.093     76.886   107.463
772.163     77.076   104.705
783.394     77.173   101.877
794.789     77.043    99.663
806.349     76.847    98.647
818.078     76.708    98.805
829.977     76.743    99.509
842.050     76.928    99.899
854.298     77.184    99.478
866.724     77.381    98.349
879.330     77.499    96.932
892.120     77.528    95.860
905.097     77.499    95.609
918.262     77.468    95.696
931.618     77.399    95.837
945.169     77.358    96.110
958.917     77.299    96.609
972.864     77.299    97.235
987.015     77.299    97.734
1001.37     77.299    97.935
1015.94     77.299    97.859
1030.71     77.299    97.578
1045.71     77.299    97.039
1060.92     77.237    96.296
1076.35     77.049    95.854
1092.00     76.848    96.307
1107.89     76.799    97.425
1124.00     76.908    97.943
1140.35     76.999    97.205
1156.94     76.840    96.470
1173.77     76.662    97.692
1190.84     76.876   100.237
1208.16     77.508   100.699
1225.73     78.023    97.574
1243.56     78.170    93.052
1261.65     78.049    89.830
1280.00     78.043    87.750
1298.62     78.148    84.879
1317.51     78.061    81.378
1336.67     77.907    79.295
1356.11     78.033    78.059
1375.84     78.394    74.554
1395.85     78.468    69.039
1416.15     78.253    65.370
1436.75     78.294    64.556
1457.65     78.696    62.606
1478.85     78.963    58.428
1500.36     78.936    54.680
1522.19     78.992    51.964
1544.33     79.114    48.925
1566.79     79.218    45.858
1589.58     79.431    42.867
1612.70     79.736    38.207
1636.16     79.848    31.983
1659.95     79.625    26.393
1684.10     79.269    22.356
1708.60     78.971    19.796
1733.45     78.930    18.049
1758.66     79.100    14.887
1784.24     79.119    10.458
1810.19     78.964     6.779
1836.52     78.783     3.572
1863.24     78.585     1.711
1890.34     78.744     1.225
1917.83     79.172    -1.389
1945.73     79.481    -4.921
1974.03     79.980    -9.227
2002.74     80.264   -16.872
2031.87     79.944   -23.276
2061.43     79.820   -27.009
2091.41     79.856   -32.017
2121.83     79.714   -37.271
2152.69     79.466   -42.989
2184.01     78.959   -46.336
2215.77     78.966   -47.974
2248.00     78.945   -52.921
2280.70     78.610   -56.314
2313.87     78.434   -59.895
2347.53     78.019   -63.437
2381.68     77.627   -66.129
2416.32     77.039   -67.606
2451.46     76.799   -66.982
2487.12     76.714   -67.543
2523.30     76.613   -67.849
2560.00     76.570   -66.496
2597.24     77.264   -66.618
2635.01     77.455   -70.550
2673.34     77.776   -72.381
2712.23     77.885   -77.224
2751.68     77.790   -80.373
2791.70     77.562   -82.487
2832.31     77.909   -84.162
2873.50     77.667   -88.838
2915.30     77.858   -90.119
2957.70     77.559   -96.664
3000.72     76.881   -96.901
3044.37     76.624   -96.004
3088.65     76.691   -94.764
3133.58     77.023   -93.634
3179.16     77.781   -95.682
3225.40     77.842   -99.715
3272.31     78.332  -102.071
3319.91     78.430  -108.033
3368.20     78.452  -111.999
3417.19     78.316  -116.904
3466.89     77.998  -121.812
3517.32     77.565  -124.063
3568.48     76.963  -126.027
3620.39     76.607  -125.442
3673.05     76.536  -124.653
3726.47     76.347  -125.517
3780.67     76.328  -123.501
3835.67     76.756  -122.369
3891.46     77.354  -125.377
3948.06     77.376  -129.797
4005.49     77.183  -131.417
4063.75     77.219  -133.476
4122.86     77.146  -136.488
4182.82     76.854  -136.688
4243.66     76.951  -136.991
4305.39     77.196  -138.337
4368.01     77.349  -140.148
4431.55     77.450  -142.509
4496.01     77.656  -144.946
4561.40     77.896  -148.912
4627.75     77.894  -153.670
4695.06     77.677  -157.434
4763.35     77.295  -161.246
4832.64     76.896  -164.126
4902.93     76.495  -166.154
4974.24     76.067  -167.630
5046.60     75.969  -168.851
5120.00     75.302  -171.756
5194.47     74.665  -170.264
5270.03     74.333  -169.012
5346.68     74.056  -166.795
5424.45     74.244  -164.292
5503.35     74.574  -163.874
5583.40     74.865  -164.658
5664.61     75.184  -166.400
5747.01     75.409  -170.521
5830.60     75.088  -174.677
5915.41     74.737  -175.402
6001.45     74.638  -176.268
6088.74     74.526  -176.571
6177.30     74.751  -178.461
6267.15     74.596   177.442
6358.31     74.393   175.246
6450.80     74.056   171.903
6544.62     73.471   171.197
6639.82     72.984   172.076
6736.40     73.017   173.779
6834.38     73.136   173.059
6933.79     73.335   172.247
7034.64     73.453   169.855
7136.96     73.439   166.636
7240.77     73.306   164.109
7346.09     73.244   160.901
7452.94     72.922   158.119
7561.35     72.605   155.488
7671.33     72.017   152.942
7782.91     71.267   152.156
7896.12     70.440   153.686
8010.97     70.010   156.612
8127.49     69.812   158.315
8245.71     69.784   158.994
8365.65     69.503   159.185
8487.33     69.341   160.566
8610.78     69.375   161.567
8736.03     69.573   160.298
8863.09     69.366   158.724
8992.01     68.972   158.505
9122.80     68.690   160.721
9255.50     68.757   162.212
9390.12     68.653   162.678
9526.70     68.397   162.855
9665.27     68.199   165.430
9805.86     68.229   167.732
9948.49     68.472   168.438
10093.2     68.537   167.957
10240.0     68.532   167.939
10388.9     68.712   168.351
10540.1     68.947   166.687
10693.4     68.840   163.040
10848.9     68.269   160.280
11006.7     67.377   159.945
11166.8     66.664   161.545
11329.2     66.075   164.275
11494.0     65.713   168.551
11661.2     65.942   172.609
11830.8     66.367   174.206
12002.9     66.569   173.132
12177.5     66.664   171.160
12354.6     66.552   168.320
12534.3     66.082   165.259
12716.6     65.399   164.184
12901.6     64.866   165.073
13089.2     64.631   164.759
13279.6     64.177   162.889
13472.8     63.403   163.184
13668.8     62.750   165.039
13867.6     62.093   166.172
14069.3     61.404   169.847
14273.9     61.101   175.792
14481.5     61.164  -179.246
14692.2     61.436  -177.034
14905.9     61.518  -176.545
15122.7     61.410  -175.353
15342.7     61.550  -172.986
15565.8     62.007  -171.464
15792.2     62.608  -172.760
16021.9     62.877  -175.583
16255.0     62.867  -178.714
16491.4     62.643   179.505
16731.3     62.506   178.505
16974.7     62.530   176.579
17221.6     62.455   173.502
17472.1     62.030   170.303
17726.2     61.508   168.152
17984.0     61.002   166.972
18245.6     60.482   166.760
18511.0     60.246   166.141
18780.2     59.961   163.289
19053.4     59.573   158.545
19330.5     58.961   152.611
19611.7     57.806   146.992
19897.0     56.604   143.958
20186.4     56.397   143.961
20480.0     56.190   143.965
20777.9     55.982   143.968
21080.1     55.775   143.971
21386.7     55.568   143.975
21697.8     55.360   143.978
22013.4     55.153   143.981
22333.6     54.946   143.985
22658.4     54.738   143.988
22988.0     54.531   143.991
23322.4     54.324   143.995
23661.6     54.116   143.998
24005.8     53.909   144.001
24355.0     53.702   144.004
24709.2     53.494   144.008
25068.6     53.287   144.011
25433.2     53.080   144.014
25803.2     52.872   144.018
26178.5     52.665   144.021
26559.3     52.458   144.024
26945.6     52.250   144.028
27337.5     52.043   144.031
27735.2     51.836   144.034
28138.6     51.628   144.038
28547.9     51.421   144.041
28963.1     51.214   144.044
29384.4     51.006   144.048
29811.8     50.799   144.051
30245.4     50.592   144.054
30685.3     50.384   144.058
31131.7     50.177   144.061
31584.5     49.970   144.064
32043.9     49.762   144.067
32510.0     49.555   144.071
32982.8     49.348   144.074
33462.6     49.140   144.077
33949.3     48.933   144.081
34443.1     48.726   144.084
34944.1     48.518   144.087
35452.4     48.311   144.091
35968.0     48.104   144.094
36491.2     47.896   144.097
37022.0     47.689   144.101
37560.5     47.482   144.104
38106.8     47.274   144.107
38661.1     47.067   144.111
39223.4     46.860   144.114
39793.9     46.652   144.117
