* Freq[Hz]      Mag   Phase[Deg]
5.00000     46.699     0.000
5.07273     46.936     0.000
5.14651     47.173     0.000
5.22137     47.409     0.000
5.29732     47.634     0.000
5.37437     47.851     0.000
5.45254     48.069     0.000
5.53185     48.290     0.000
5.61231     48.517     0.000
5.69394     48.745     0.000
5.77676     48.975     0.000
5.86079     49.213     0.000
5.94604     49.450     0.000
6.03252     49.678     0.000
6.12027     49.891     0.000
6.20929     50.103     0.000
6.29961     50.320     0.000
6.39124     50.541     0.000
6.48420     50.762     0.000
6.57851     50.990     0.000
6.67420     51.219     0.000
6.77128     51.442     0.000
6.86977     51.641     0.000
6.96969     51.839     0.000
7.07107     52.072     0.000
7.17392     52.319     0.000
7.27827     52.556     0.000
7.38413     52.769     0.000
7.49154     52.982     0.000
7.60050     53.202     0.000
7.71105     53.422     0.000
7.82321     53.647     0.000
7.93701     53.874     0.000
8.05245     54.105     0.000
8.16958     54.340     0.000
8.28841     54.577     0.000
8.40896     54.819     0.000
8.53128     55.050     0.000
8.65537     55.249     0.000
8.78126     55.450     0.000
8.90899     55.655     0.000
9.03857     55.877     0.000
9.17004     56.141     0.000
9.30342     56.385     0.000
9.43874     56.602     0.000
9.57603     56.822     0.000
9.71532     57.044     0.000
9.85663     57.271     0.000
10.0000     57.499     0.000
10.1455     57.733     0.000
10.2930     57.951     0.000
10.4427     58.131     0.000
10.5946     58.352     0.000
10.7487     58.597     0.000
10.9051     58.848     0.000
11.0637     59.076     0.000
11.2246     59.269     0.000
11.3879     59.465     0.000
11.5535     59.685     0.000
11.7216     59.954     0.000
11.8921     60.170     0.000
12.0650     60.378     0.000
12.2405     60.588     0.000
12.4186     60.802     0.000
12.5992     61.019     0.000
12.7825     61.238     0.000
12.9684     61.461     0.000
13.1570     61.688     0.000
13.3484     61.918     0.000
13.5426     62.150     0.000
13.7395     62.387     0.000
13.9394     62.627     0.000
14.1421     62.870     0.000
14.3478     63.078     0.000
14.5565     63.267     0.000
14.7683     63.521     0.000
14.9831     63.779     0.000
15.2010     63.960     0.000
15.4221     64.206     0.000
15.6464     64.417     0.000
15.8740     64.648     0.000
16.1049     64.883     0.000
16.3392     65.107     0.000
16.5768     65.361     0.000
16.8179     65.554     0.000
17.0626     65.749     0.000
17.3107     65.972     0.000
17.5625     66.249     0.000
17.8180     66.454     0.000
18.0771     66.661     0.000
18.3401     66.871     0.000
18.6068     67.085     0.000
18.8775     67.301     0.000
19.1521     67.582     0.000
19.4306     67.844     0.000
19.7133     68.070     0.000
20.0000     68.199     0.000
20.2909     68.448     0.000
20.5860     68.768     0.000
20.8855     69.062     0.000
21.1893     69.351     0.000
21.4975     69.597     0.000
21.8102     69.823     0.000
22.1274     70.001     0.000
22.4492     70.179     0.000
22.7758     70.409     0.000
23.1071     70.585     0.000
23.4432     70.776     0.000
23.7841     71.026     0.000
24.1301     71.303     0.000
24.4811     71.491     0.000
24.8372     71.769     0.000
25.1984     71.978     0.000
25.5649     72.151     0.000
25.9368     72.374     0.000
26.3141     72.525     0.000
26.6968     72.678     0.000
27.0851     72.867     0.000
27.4791     73.091     0.000
27.8788     73.251     0.000
28.2843     73.413     0.000
28.6957     73.577     0.000
29.1131     73.844     0.000
29.5365     74.028     0.000
29.9661     74.286     0.000
30.4020     74.521     0.000
30.8442     74.737     0.000
31.2929     74.933     0.000
31.7480     75.198     0.000
32.2098     75.467     0.000
32.6783     75.670     0.000
33.1536     75.861     0.000
33.6359     76.053     0.000
34.1251     76.299     0.000
34.6215     76.548     0.000
35.1250     76.749     0.000
35.6359     76.953     0.000
36.1543     77.161     0.000
36.6802     77.443     0.000
37.2137     77.685     0.000
37.7550     77.901     0.000
38.3041     78.099     0.000
38.8613     78.244     0.000
39.4265     78.470     0.000
40.0000     78.699     0.000
40.5818     78.932     0.000
41.1721     79.068     0.000
41.7710     79.207     0.000
42.3785     79.350     0.000
42.9949     79.499     0.000
43.6203     79.699     0.000
44.2548     79.901     0.000
44.8985     80.099     0.000
45.5515     80.320     0.000
46.2141     80.485     0.000
46.8863     80.699     0.000
47.5683     80.899     0.000
48.2602     81.099     0.000
48.9621     81.199     0.000
49.6743     81.369     0.000
50.3968     81.558     0.000
51.1299     81.751     0.000
51.8736     81.948     0.000
52.6281     82.150     0.000
53.3936     82.399     0.000
54.1702     82.667     0.000
54.9581     82.882     0.000
55.7575     83.102     0.000
56.5685     83.326     0.000
57.3914     83.556     0.000
58.2261     83.799     0.000
59.0730     84.028     0.000
59.9323     84.199     0.000
60.8040     84.421     0.000
61.6884     84.599     0.000
62.5857     84.799     0.000
63.4960     84.997     0.000
64.4196     85.167     0.000
65.3566     85.342     0.000
66.3073     85.522     0.000
67.2717     85.708     0.000
68.2502     85.899     0.000
69.2429     86.099     0.000
70.2501     86.299     0.000
71.2719     86.499     0.000
72.3086     86.699     0.000
73.3603     86.899     0.000
74.4274     87.099     0.000
75.5099     87.203     0.000
76.6083     87.399     0.000
77.7226     87.499     0.000
78.8531     87.599     0.000
80.0000     87.699     0.000
81.1636     87.799     0.000
82.3442     87.899     0.000
83.5419     87.999     0.000
84.7570     88.099     0.000
85.9899     88.199     0.000
87.2406     88.299     0.000
88.5096     88.403     0.000
89.7970     88.599     0.000
91.1031     88.682     0.000
92.4282     88.799     0.000
93.7726     88.899     0.000
95.1366     88.966     0.000
96.5204     89.019     0.000
97.9243     89.099     0.000
99.3486     88.999     0.000
100.794     88.982     0.000
102.260     88.899     0.000
103.747     88.899     0.000
105.256     88.899     0.000
106.787     88.999     0.000
108.340     88.999     0.000
109.916     88.999     0.000
111.515     89.056     0.000
113.137     88.999     0.000
114.783     88.985     0.000
116.452     88.899     0.000
118.146     88.799     0.000
119.865     88.749     0.000
121.608     88.670     0.000
123.377     88.599     0.000
125.171     88.513     0.000
126.992     88.499     0.000
128.839     88.498     0.000
130.713     88.411     0.000
132.615     88.394     0.000
134.543     88.389     0.000
136.500     88.398     0.000
138.486     88.463     0.000
140.500     88.356     0.000
142.544     88.220     0.000
144.617     88.097     0.000
146.721     87.969     0.000
148.855     87.848     0.000
151.020     87.754     0.000
153.217     87.697     0.000
155.445     87.646     0.000
157.706     87.525     0.000
160.000     87.357     0.000
162.327     87.160     0.000
164.688     87.023     0.000
167.084     86.934     0.000
169.514     86.941     0.000
171.980     87.002     0.000
174.481     87.075     0.000
177.019     87.081     0.000
179.594     87.019     0.000
182.206     87.024     0.000
184.856     87.040     0.000
187.545     87.057     0.000
190.273     87.089     0.000
193.041     87.118     0.000
195.849     87.077     0.000
198.697     87.078     0.000
201.587     87.033     0.000
204.520     87.082     0.000
207.494     87.117     0.000
210.512     87.176     0.000
213.574     87.217     0.000
216.681     87.235     0.000
219.833     87.204     0.000
223.030     87.147     0.000
226.274     87.140     0.000
229.565     87.119     0.000
232.905     87.091     0.000
236.292     87.077     0.000
239.729     86.988     0.000
243.216     87.018     0.000
246.754     87.050     0.000
250.343     87.094     0.000
253.984     87.055     0.000
257.678     87.054     0.000
261.426     87.062     0.000
265.229     87.144     0.000
269.087     87.189     0.000
273.001     87.166     0.000
276.972     87.172     0.000
281.000     87.267     0.000
285.088     87.299     0.000
289.234     87.307     0.000
293.441     87.399     0.000
297.709     87.399     0.000
302.040     87.399     0.000
306.433     87.399     0.000
310.890     87.399     0.000
315.412     87.308     0.000
320.000     87.299     0.000
324.655     87.299     0.000
329.377     87.236     0.000
334.168     87.192     0.000
339.028     87.099     0.000
343.959     87.099     0.000
348.962     87.099     0.000
354.038     87.164     0.000
359.188     87.199     0.000
364.412     87.199     0.000
369.713     87.206     0.000
375.090     87.299     0.000
380.546     87.366     0.000
386.081     87.433     0.000
391.697     87.499     0.000
397.394     87.499     0.000
403.175     87.499     0.000
409.039     87.499     0.000
414.989     87.499     0.000
421.025     87.499     0.000
427.149     87.499     0.000
433.362     87.405     0.000
439.665     87.421     0.000
446.060     87.499     0.000
452.548     87.566     0.000
459.131     87.599     0.000
465.809     87.652     0.000
472.584     87.727     0.000
479.458     87.852     0.000
486.432     87.978     0.000
493.507     88.074     0.000
500.686     88.169     0.000
507.968     88.264     0.000
515.357     88.349     0.000
522.853     88.466     0.000
530.458     88.499     0.000
538.174     88.499     0.000
546.002     88.475     0.000
553.943     88.399     0.000
562.001     88.390     0.000
570.175     88.299     0.000
578.469     88.269     0.000
586.883     88.199     0.000
595.419     88.199     0.000
604.080     88.199     0.000
612.866     88.199     0.000
621.780     88.199     0.000
630.824     88.199     0.000
640.000     88.199     0.000
649.309     88.199     0.000
658.753     88.199     0.000
668.335     88.121     0.000
678.056     88.064     0.000
687.919     87.960     0.000
697.925     87.851     0.000
708.077     87.799     0.000
718.376     87.799     0.000
728.825     87.802     0.000
739.426     87.920     0.000
750.181     88.062     0.000
761.093     88.146     0.000
772.163     88.152     0.000
783.394     88.099     0.000
794.789     87.958     0.000
806.349     87.789     0.000
818.078     87.657     0.000
829.977     87.599     0.000
842.050     87.525     0.000
854.298     87.472     0.000
866.724     87.352     0.000
879.330     87.182     0.000
892.120     86.988     0.000
905.097     86.766     0.000
918.262     86.596     0.000
931.618     86.499     0.000
945.169     86.499     0.000
958.917     86.499     0.000
972.864     86.560     0.000
987.015     86.599     0.000
1001.37     86.592     0.000
1015.94     86.499     0.000
1030.71     86.402     0.000
1045.71     86.399     0.000
1060.92     86.499     0.000
1076.35     86.499     0.000
1092.00     86.418     0.000
1107.89     86.340     0.000
1124.00     86.299     0.000
1140.35     86.223     0.000
1156.94     86.127     0.000
1173.77     86.101     0.000
1190.84     86.286     0.000
1208.16     86.622     0.000
1225.73     86.858     0.000
1243.56     86.983     0.000
1261.65     87.185     0.000
1280.00     87.533     0.000
1298.62     87.836     0.000
1317.51     87.899     0.000
1336.67     87.899     0.000
1356.11     87.967     0.000
1375.84     88.099     0.000
1395.85     88.092     0.000
1416.15     87.978     0.000
1436.75     87.983     0.000
1457.65     88.089     0.000
1478.85     88.070     0.000
1500.36     87.999     0.000
1522.19     88.096     0.000
1544.33     88.307     0.000
1566.79     88.389     0.000
1589.58     88.259     0.000
1612.70     88.043     0.000
1636.16     87.764     0.000
1659.95     87.487     0.000
1684.10     87.272     0.000
1708.60     87.066     0.000
1733.45     86.855     0.000
1758.66     86.735     0.000
1784.24     86.589     0.000
1810.19     86.443     0.000
1836.52     86.159     0.000
1863.24     85.688     0.000
1890.34     85.339     0.000
1917.83     85.078     0.000
1945.73     84.629     0.000
1974.03     84.609     0.000
2002.74     84.874     0.000
2031.87     84.919     0.000
2061.43     85.118     0.000
2091.41     85.175     0.000
2121.83     85.049     0.000
2152.69     84.999     0.000
2184.01     85.124     0.000
2215.77     85.498     0.000
2248.00     85.599     0.000
2280.70     85.620     0.000
2313.87     85.654     0.000
2347.53     85.444     0.000
2381.68     85.300     0.000
2416.32     85.587     0.000
2451.46     86.053     0.000
2487.12     86.007     0.000
2523.30     85.996     0.000
2560.00     85.741     0.000
2597.24     85.303     0.000
2635.01     85.007     0.000
2673.34     85.303     0.000
2712.23     85.329     0.000
2751.68     85.556     0.000
2791.70     85.268     0.000
2832.31     85.227     0.000
2873.50     85.362     0.000
2915.30     86.127     0.000
2957.70     86.453     0.000
3000.72     86.675     0.000
3044.37     86.626     0.000
3088.65     86.788     0.000
3133.58     87.375     0.000
3179.16     87.828     0.000
3225.40     87.899     0.000
3272.31     87.899     0.000
3319.91     87.847     0.000
3368.20     88.079     0.000
3417.19     88.003     0.000
3466.89     87.757     0.000
3517.32     87.442     0.000
3568.48     87.258     0.000
3620.39     87.467     0.000
3673.05     87.578     0.000
3726.47     87.686     0.000
3780.67     87.521     0.000
3835.67     87.543     0.000
3891.46     87.641     0.000
3948.06     87.409     0.000
4005.49     87.042     0.000
4063.75     86.712     0.000
4122.86     86.280     0.000
4182.82     85.720     0.000
4243.66     85.105     0.000
4305.39     84.747     0.000
4368.01     84.491     0.000
4431.55     84.399     0.000
4496.01     84.595     0.000
4561.40     85.152     0.000
4627.75     85.661     0.000
4695.06     86.041     0.000
4763.35     86.438     0.000
4832.64     86.798     0.000
4902.93     86.999     0.000
4974.24     87.022     0.000
5046.60     87.181     0.000
5120.00     87.067     0.000
5194.47     86.772     0.000
5270.03     86.531     0.000
5346.68     85.967     0.000
5424.45     85.436     0.000
5503.35     85.135     0.000
5583.40     85.167     0.000
5664.61     85.630     0.000
5747.01     86.368     0.000
5830.60     86.930     0.000
5915.41     87.292     0.000
6001.45     87.686     0.000
6088.74     87.918     0.000
6177.30     88.038     0.000
6267.15     87.995     0.000
6358.31     87.662     0.000
6450.80     87.154     0.000
6544.62     86.602     0.000
6639.82     86.239     0.000
6736.40     86.254     0.000
6834.38     86.318     0.000
6933.79     86.542     0.000
7034.64     86.599     0.000
7136.96     86.688     0.000
7240.77     86.782     0.000
7346.09     86.905     0.000
7452.94     86.999     0.000
7561.35     87.057     0.000
7671.33     86.924     0.000
7782.91     86.799     0.000
7896.12     86.784     0.000
8010.97     87.007     0.000
8127.49     87.331     0.000
8245.71     87.748     0.000
8365.65     87.899     0.000
8487.33     87.786     0.000
8610.78     87.414     0.000
8736.03     87.034     0.000
8863.09     86.605     0.000
8992.01     86.461     0.000
9122.80     86.603     0.000
9255.50     87.034     0.000
9390.12     87.404     0.000
9526.70     87.674     0.000
9665.27     87.769     0.000
9805.86     87.728     0.000
9948.49     87.652     0.000
10093.2     87.319     0.000
10240.0     86.782     0.000
10388.9     86.294     0.000
10540.1     86.099     0.000
10693.4     86.219     0.000
10848.9     86.368     0.000
11006.7     85.992     0.000
11166.8     85.322     0.000
11329.2     84.928     0.000
11494.0     85.130     0.000
11661.2     85.469     0.000
11830.8     85.599     0.000
12002.9     85.537     0.000
12177.5     85.389     0.000
12354.6     85.143     0.000
12534.3     84.734     0.000
12716.6     84.638     0.000
12901.6     85.025     0.000
13089.2     85.465     0.000
13279.6     85.599     0.000
13472.8     85.599     0.000
13668.8     85.775     0.000
13867.6     86.266     0.000
14069.3     86.783     0.000
14273.9     87.166     0.000
14481.5     87.439     0.000
14692.2     87.636     0.000
14905.9     87.699     0.000
15122.7     87.811     0.000
15342.7     88.040     0.000
15565.8     88.069     0.000
15792.2     87.699     0.000
16021.9     87.209     0.000
16255.0     86.948     0.000
16491.4     86.843     0.000
16731.3     86.732     0.000
16974.7     86.624     0.000
17221.6     86.436     0.000
17472.1     86.123     0.000
17726.2     85.935     0.000
17984.0     85.752     0.000
18245.6     85.439     0.000
18511.0     85.216     0.000
18780.2     85.138     0.000
19053.4     85.099     0.000
19330.5     84.987     0.000
19611.7     84.753     0.000
19897.0     84.526     0.000
20186.4     84.526     0.000
20480.0     84.525     0.000
20777.9     84.525     0.000
21080.1     84.525     0.000
21386.7     84.525     0.000
21697.8     84.525     0.000
22013.4     84.525     0.000
22333.6     84.525     0.000
22658.4     84.525     0.000
22988.0     84.525     0.000
23322.4     84.524     0.000
23661.6     84.524     0.000
24005.8     84.524     0.000
24355.0     84.524     0.000
24709.2     84.524     0.000
25068.6     84.524     0.000
25433.2     84.524     0.000
25803.2     84.524     0.000
26178.5     84.524     0.000
26559.3     84.524     0.000
26945.6     84.523     0.000
27337.5     84.523     0.000
27735.2     84.523     0.000
28138.6     84.523     0.000
28547.9     84.523     0.000
28963.1     84.523     0.000
29384.4     84.523     0.000
29811.8     84.523     0.000
30245.4     84.523     0.000
30685.3     84.522     0.000
31131.7     84.522     0.000
31584.5     84.522     0.000
32043.9     84.522     0.000
32510.0     84.522     0.000
32982.8     84.522     0.000
33462.6     84.522     0.000
33949.3     84.522     0.000
34443.1     84.522     0.000
34944.1     84.521     0.000
35452.4     84.521     0.000
35968.0     84.521     0.000
36491.2     84.521     0.000
37022.0     84.521     0.000
37560.5     84.521     0.000
38106.8     84.521     0.000
38661.1     84.521     0.000
39223.4     84.521     0.000
39793.9     84.521     0.000
