"Horizontal Reflections"
"Front"		"Side"		"Rear"		"Total Horizontal Reflection"
"Frequency [Hz]"	"Sound Pessure Level [dB]  / [2.83V 1m] "	"Frequency [Hz]"	"Sound Pessure Level [dB]  / [2.83V 1m] "	"Frequency [Hz]"	"Sound Pessure Level [dB]  / [2.83V 1m] "	"Frequency [Hz]"	"Sound Pessure Level [dB]  / [2.83V 1m] "
20.5078	48.8696	20.5078	47.0013	20.5078	53.1113	20.5078	51.3657
21.9727	50.9053	21.9727	51.306	21.9727	57.2309	21.9727	55.3203
23.4375	55.8071	23.4375	55.6116	23.4375	60.2218	23.4375	58.6368
24.9023	58.3033	24.9023	58.1882	24.9023	62.3562	24.9023	60.8727
26.3672	61.2528	26.3672	61.2884	26.3672	64.7246	26.3672	63.4234
27.832	63.9843	27.832	63.841	27.832	66.6829	27.832	65.585
29.2969	65.9425	29.2969	65.831	29.2969	68.4469	29.2969	67.4183
30.7617	67.9687	30.7617	67.8437	30.7617	70.0876	30.7617	69.1876
32.2266	69.7498	32.2266	69.638	32.2266	71.6586	32.2266	70.8363
33.6914	71.4128	33.6914	71.3534	33.6914	73.2268	33.6914	72.4503
35.1562	73.0661	35.1562	73.0211	35.1562	74.6542	35.1562	73.9656
36.6211	74.4528	36.6211	74.4202	36.6211	75.8639	36.6211	75.2466
38.0859	75.7092	38.0859	75.6701	38.0859	76.894	38.0859	76.3652
39.5508	76.8513	39.5508	76.822	39.5508	77.9204	39.5508	77.441
41.0156	77.8737	41.0156	77.8708	41.0156	78.8646	41.0156	78.424
42.4805	78.844	42.4805	78.8468	42.4805	79.7159	42.4805	79.3265
43.9453	79.5953	43.9453	79.6045	43.9453	80.3912	43.9453	80.0358
45.4102	80.4043	45.4102	80.4126	45.4102	81.065	45.4102	80.7676
46.875	81.0674	46.875	81.0833	46.875	81.6857	46.875	81.4088
48.3398	81.6492	48.3398	81.6993	48.3398	82.299	48.3398	82.0171
51.2695	82.7196	51.2695	82.7908	51.2695	83.2557	51.2695	83.0294
52.7344	83.2084	52.7344	83.2836	52.7344	83.6741	52.7344	83.4803
54.1992	83.6873	54.1992	83.7538	54.1992	84.0495	54.1992	83.9
55.6641	84.157	55.6641	84.205	55.6641	84.4187	55.6641	84.3101
58.5938	84.8363	58.5938	84.896	58.5938	85.0531	58.5938	84.9683
60.0586	85.1504	60.0586	85.2108	60.0586	85.3252	60.0586	85.2601
62.9883	85.7067	62.9883	85.7899	62.9883	85.8881	62.9883	85.8261
64.4531	85.9461	64.4531	86.0372	64.4531	86.1296	64.4531	86.0688
67.3828	86.327	67.3828	86.4268	67.3828	86.491	67.3828	86.4417
68.8477	86.5423	68.8477	86.6451	68.8477	86.7048	68.8477	86.657
71.7773	86.9557	71.7773	87.0497	71.7773	87.0416	71.7773	87.0273
74.707	87.3055	74.707	87.3754	74.707	87.2652	74.707	87.3039
77.6367	87.503	77.6367	87.569	77.6367	87.4113	77.6367	87.4735
79.1016	87.5606	79.1016	87.6274	79.1016	87.458	79.1016	87.5257
82.0312	87.6546	82.0312	87.7292	82.0312	87.5588	82.0312	87.6254
84.9609	87.8072	84.9609	87.8556	84.9609	87.6344	84.9609	87.7306
87.8906	87.7761	87.8906	87.8419	87.8906	87.6449	87.8906	87.726
90.8203	87.9935	90.8203	87.9718	90.8203	87.5068	90.8203	87.7371
95.2148	87.8504	95.2148	87.8961	95.2148	87.6614	95.2148	87.7647
98.1445	87.6163	98.1445	87.6747	98.1445	87.4819	98.1445	87.5624
101.074	87.4757	101.074	87.5513	101.074	87.3477	101.074	87.4301
105.469	87.7728	105.469	87.7332	105.469	87.2196	105.469	87.4779
108.398	87.811	108.398	87.7747	108.398	87.2257	108.398	87.5012
112.793	87.8516	112.793	87.7399	112.793	87.1052	112.793	87.4401
117.188	87.7249	117.188	87.575	117.188	86.825	117.188	87.2276
120.117	87.823	120.117	87.6573	120.117	86.7062	120.117	87.2179
124.512	87.6092	124.512	87.5355	124.512	86.7066	124.512	87.1337
128.906	87.0877	128.906	87.1152	128.906	86.7097	128.906	86.9003
133.301	87.0791	133.301	87.037	133.301	86.4729	133.301	86.7572
139.16	86.9867	139.16	86.9194	139.16	86.242	139.16	86.5893
143.555	86.7437	143.555	86.7282	143.555	86.2935	143.555	86.5074
147.949	86.76	147.949	86.6177	147.949	86.0341	147.949	86.3495
153.809	86.7805	153.809	86.5655	153.809	85.7506	153.809	86.2014
159.668	86.7628	159.668	86.5323	159.668	85.6677	159.668	86.1481
165.527	86.6633	165.527	86.4882	165.527	85.7706	165.527	86.1619
171.387	86.4969	171.387	86.2701	171.387	85.5963	171.387	85.9762
177.246	86.5658	177.246	86.2151	177.246	85.2932	177.246	85.8312
183.105	86.2772	183.105	85.9901	183.105	85.0803	183.105	85.5974
188.965	86.0981	188.965	85.8057	188.965	84.9546	188.965	85.4418
196.289	86.3002	196.289	85.8216	196.289	84.7836	196.289	85.4142
203.613	86.1961	203.613	85.6424	203.613	84.3946	203.613	85.1589
210.938	86.3202	210.938	85.8426	210.938	84.4564	210.938	85.2794
218.262	86.095	218.262	85.6475	218.262	84.5614	218.262	85.2107
225.586	86.126	225.586	85.6199	225.586	84.6992	225.586	85.2729
232.91	86.2852	232.91	85.6604	232.91	84.2966	232.91	85.1438
241.699	86.042	241.699	85.4252	241.699	83.9896	241.699	84.8755
250.488	86.1087	250.488	85.391	250.488	84.0169	250.488	84.8936
259.277	86.4477	259.277	85.6143	259.277	84.1084	259.277	85.091
268.066	86.0212	268.066	85.1605	268.066	83.7618	268.066	84.6898
276.855	86.2378	276.855	85.3956	276.855	83.353	276.855	84.6569
287.109	86.1529	287.109	85.3696	287.109	83.5301	287.109	84.6953
297.363	86.2064	297.363	85.2758	297.363	83.4277	297.363	84.6387
307.617	86.4152	307.617	85.485	307.617	83.1408	307.617	84.6564
319.336	86.3132	319.336	85.1068	319.336	82.8194	319.336	84.3814
329.59	85.9186	329.59	85.0185	329.59	82.5932	329.59	84.151
341.309	85.9507	341.309	84.8213	341.309	82.7128	341.309	84.1397
353.027	86.0474	353.027	84.9957	353.027	82.135	353.027	84.0192
366.211	85.881	366.211	84.8435	366.211	81.6869	366.211	83.7635
379.395	86.5197	379.395	85.4648	379.395	82.0707	379.395	84.3142
392.578	85.9832	392.578	85.087	392.578	82.3682	392.578	84.1124
405.762	86.0008	405.762	84.7494	405.762	81.9952	405.762	83.872
420.41	86.2435	420.41	84.8537	420.41	81.3844	420.41	83.7912
435.059	85.7524	435.059	84.711	435.059	81.2525	435.059	83.5358
451.172	86.3039	451.172	84.9476	451.172	81.1491	451.172	83.7762
465.82	86.1652	465.82	84.9896	465.82	80.6029	465.82	83.5923
483.398	86.136	483.398	84.8707	483.398	80.6822	483.398	83.5582
499.512	85.8923	499.512	84.7156	499.512	80.4415	499.512	83.3488
517.09	85.8206	517.09	84.6026	517.09	80.6404	517.09	83.3365
536.133	85.8414	536.133	83.263	536.133	79.3237	536.133	82.5209
555.176	87.6522	555.176	84.6977	555.176	79.4039	555.176	83.8236
574.219	88.177	574.219	86.0457	574.219	81.1851	574.219	84.8979
594.727	87.1768	594.727	85.6086	594.727	80.9761	594.727	84.2916
615.234	86.641	615.234	85.4727	615.234	79.7305	615.234	83.7523
637.207	86.1344	637.207	85.0725	637.207	80.4799	637.207	83.5814
659.18	85.5309	659.18	84.1529	659.18	78.6543	659.18	82.5641
682.617	84.6565	682.617	83.5673	682.617	78.1981	682.617	81.8984
707.52	84.3993	707.52	84.5245	707.52	79.7051	707.52	82.5909
732.422	86.0593	732.422	84.7551	732.422	80.8228	732.422	83.5273
757.324	86.1892	757.324	84.6611	757.324	80.9995	757.324	83.5896
785.156	86.791	785.156	84.1956	785.156	80.5216	785.156	83.5291
811.523	86.0032	811.523	82.6716	811.523	79.2286	811.523	82.3815
840.82	85.8801	840.82	82.8172	840.82	79.3096	840.82	82.392
870.117	85.9247	870.117	82.3238	870.117	79.4389	870.117	82.3018
900.879	86.3576	900.879	83.1518	900.879	78.4654	900.879	82.5168
933.105	85.8884	933.105	81.9541	933.105	79.7789	933.105	82.2831
965.332	86.8136	965.332	83.3953	965.332	78.9967	965.332	82.9216
1,000.49	85.6169	1,000.49	83.0974	1,000.49	79.2881	1,000.49	82.3642
1,035.64	85.438	1,035.64	83.0517	1,035.64	78.0647	1,035.64	81.9838
1,072.27	84.722	1,072.27	82.8451	1,072.27	77.7541	1,072.27	81.542
1,108.89	84.7837	1,108.89	82.1706	1,108.89	76.3313	1,108.89	81.0369
1,148.44	84.4957	1,148.44	82.2258	1,148.44	75.4037	1,148.44	80.7714
1,189.45	84.8976	1,189.45	81.5859	1,189.45	74.5702	1,189.45	80.6143
1,230.47	85.0936	1,230.47	81.4114	1,230.47	74.7555	1,230.47	80.6837
1,274.41	86.0559	1,274.41	82.9158	1,274.41	76.1019	1,274.41	81.8832
1,319.82	87.3351	1,319.82	82.4278	1,319.82	78.2085	1,319.82	82.7598
1,366.7	87.7829	1,366.7	84.1469	1,366.7	77.8628	1,366.7	83.4468
1,413.57	87.7297	1,413.57	84.0634	1,413.57	76.3289	1,413.57	83.1962
1,463.38	87.2101	1,463.38	83.7494	1,463.38	75.6232	1,463.38	82.7279
1,516.11	86.6074	1,516.11	82.4141	1,516.11	74.66	1,516.11	81.8439
1,568.85	85.5621	1,568.85	82.0831	1,568.85	74.9184	1,568.85	81.1806
1,624.51	86.2957	1,624.51	82.4024	1,624.51	74.6644	1,624.51	81.6617
1,681.64	88.0989	1,681.64	83.155	1,681.64	74.7122	1,681.64	82.9791
1,741.7	88.1752	1,741.7	83.4556	1,741.7	74.5764	1,741.7	83.1055
1,803.22	88.0137	1,803.22	83.3556	1,803.22	74.5416	1,803.22	82.972
1,866.21	87.5307	1,866.21	83.199	1,866.21	73.5412	1,866.21	82.5544
1,932.13	86.8005	1,932.13	82.5884	1,932.13	72.7211	1,932.13	81.8573
1,999.51	86.9874	1,999.51	82.7671	1,999.51	72.51	1,999.51	82.0169
2,069.82	87.6184	2,069.82	83.2123	2,069.82	72.947	2,069.82	82.576
2,143.07	87.6643	2,143.07	83.2065	2,143.07	73.3793	2,143.07	82.6287
2,219.24	87.0897	2,219.24	82.7152	2,219.24	72.6567	2,219.24	82.0716
2,296.88	86.3944	2,296.88	82.2498	2,296.88	72.1476	2,296.88	81.463
2,378.91	86.5962	2,378.91	82.6169	2,378.91	72.5814	2,378.91	81.735
2,462.4	87.868	2,462.4	83.8208	2,462.4	73.2914	2,462.4	82.9497
2,548.83	87.7066	2,548.83	83.7582	2,548.83	73.1708	2,548.83	82.8244
2,639.65	86.4932	2,639.65	82.4134	2,639.65	72.3839	2,639.65	81.592
2,731.93	85.4614	2,731.93	81.1562	2,731.93	71.4719	2,731.93	80.4937
2,828.61	85.433	2,828.61	81.4746	2,828.61	71.7555	2,828.61	80.6013
2,928.22	86.0387	2,928.22	82.3882	2,928.22	72.6877	2,928.22	81.3368
3,030.76	86.2672	3,030.76	82.7293	3,030.76	73.1445	3,030.76	81.6222
3,137.7	85.9455	3,137.7	82.5495	3,137.7	72.6938	3,137.7	81.3424
3,249.02	85.0328	3,249.02	81.9355	3,249.02	72.3597	3,249.02	80.5849
3,363.28	84.7054	3,363.28	81.3751	3,363.28	71.828	3,363.28	80.1545
3,481.93	84.6585	3,481.93	81.5197	3,481.93	71.1994	3,481.93	80.1373
3,604.98	84.5809	3,604.98	81.5059	3,604.98	71.5076	3,604.98	80.1111
3,732.42	84.7822	3,732.42	81.5598	3,732.42	71.2114	3,732.42	80.2217
3,864.26	83.8494	3,864.26	80.4285	3,864.26	70.0801	3,864.26	79.2018
4,000.49	82.6457	4,000.49	78.9593	4,000.49	69.0184	4,000.49	77.9118
4,141.11	82.4459	4,141.11	79.0997	4,141.11	68.4475	4,141.11	77.8117
4,287.6	82.0578	4,287.6	78.9385	4,287.6	67.9724	4,287.6	77.5046
4,438.48	82.545	4,438.48	78.9753	4,438.48	67.2851	4,438.48	77.7599
4,595.21	81.9173	4,595.21	78.0115	4,595.21	66.3452	4,595.21	76.997
4,756.35	81.6969	4,756.35	77.565	4,756.35	66.6331	4,756.35	76.7234
4,924.8	82.9308	4,924.8	78.1989	4,924.8	66.2661	4,924.8	77.6912
5,097.66	83.091	5,097.66	77.6099	5,097.66	65.4656	5,097.66	77.5965
5,277.83	82.5418	5,277.83	77.0466	5,277.83	65.9641	5,277.83	77.0815
5,463.87	83.1904	5,463.87	77.5126	5,463.87	66.9924	5,463.87	77.6969
5,657.23	83.7634	5,657.23	77.827	5,657.23	65.7649	5,657.23	78.1348
5,856.45	82.931	5,856.45	77.3163	5,856.45	65.5592	5,856.45	77.4081
6,062.99	84.1183	6,062.99	77.7321	6,062.99	65.0707	6,062.99	78.3484
6,276.86	83.5752	6,276.86	78.0249	6,276.86	64.9169	6,276.86	78.0315
6,498.05	84.3278	6,498.05	78.3467	6,498.05	64.4382	6,498.05	78.6404
6,726.56	85.0752	6,726.56	78.7144	6,726.56	65.0545	6,726.56	79.2897
6,963.87	84.6181	6,963.87	78.126	6,963.87	64.9551	6,963.87	78.8085
7,209.96	85.709	7,209.96	79.1305	7,209.96	65.8929	7,209.96	79.8758
7,464.84	86.0399	7,464.84	79.2007	7,464.84	65.1602	7,464.84	80.1269
7,727.05	86.3973	7,727.05	79.3583	7,727.05	65.6714	7,727.05	80.4428
7,999.51	86.4031	7,999.51	79.3983	7,999.51	64.9337	7,999.51	80.4441
8,282.23	86.1688	8,282.23	78.6737	8,282.23	63.6477	8,282.23	80.0931
8,573.73	86.2684	8,573.73	78.3836	8,573.73	62.4755	8,573.73	80.104
8,876.95	85.511	8,876.95	77.273	8,876.95	61.0366	8,876.95	79.2769
9,188.96	84.4977	9,188.96	76.5136	9,188.96	60.5407	9,188.96	78.3134
9,514.16	83.4592	9,514.16	75.025	9,514.16	59.0084	9,514.16	77.1916
9,849.61	82.4568	9,849.61	73.6093	9,849.61	57.7192	9,849.61	76.1199
10,196.8	82.2756	10,196.8	73.1603	10,196.8	57.7179	10,196.8	75.8994
10,555.7	82.9221	10,555.7	73.7636	10,555.7	58.3362	10,555.7	76.5394
10,927.7	83.7607	10,927.7	74.3641	10,927.7	59.0984	10,927.7	77.3432
11,313	84.7832	11,313	75.2863	11,313	60.4479	11,313	78.3545
11,712.9	85.5956	11,712.9	75.9612	11,712.9	61.6143	11,712.9	79.1515
12,126	86.0761	12,126	76.2657	12,126	61.8047	12,126	79.6063
12,553.7	86.0822	12,553.7	76.2751	12,553.7	61.6359	12,553.7	79.6114
12,996.1	85.8545	12,996.1	76.1123	12,996.1	61.5026	12,996.1	79.3929
13,454.6	85.5572	13,454.6	75.759	13,454.6	61.1419	13,454.6	79.0878
13,929.2	85.305	13,929.2	75.4565	13,929.2	60.9197	13,929.2	78.8293
14,419.9	85.2437	14,419.9	75.5053	14,419.9	59.9811	14,419.9	78.7755
14,928.2	84.8793	14,928.2	74.8941	14,928.2	58.5845	14,928.2	78.3731
15,455.6	84.3633	15,455.6	74.4355	15,455.6	59.4278	15,455.6	77.8732
16,000.5	83.4134	16,000.5	73.5143	16,000.5	58.9137	16,000.5	76.9304
16,564.5	82.3568	16,564.5	71.9282	16,564.5	57.0696	16,564.5	75.8041
17,148.9	81.3353	17,148.9	70.514	17,148.9	56.0971	17,148.9	74.74
17,752.4	79.9854	17,752.4	68.3971	17,752.4	55.3716	17,752.4	73.3206
18,379.4	78.4037	18,379.4	66.664	18,379.4	54.4604	18,379.4	71.7318
19,026.9	76.9589	19,026.9	65.565	19,026.9	53.3696	19,026.9	70.3216
19,697.8	75.2893	19,697.8	64.2267	19,697.8	51.4102	19,697.8	68.6809
19,999.5	74.6173	19,999.5	63.5964	19,999.5	51.0004	19,999.5	68.0158
