"Vertical Reflections"					
"Floor Reflection"		"Ceiling Reflection"		"Total Vertical Reflection"	
"Frequency [Hz]"	"Sound Pessure Level [dB]  / [2.83V 1m] "	"Frequency [Hz]"	"Sound Pessure Level [dB]  / [2.83V 1m] "	"Frequency [Hz]"	"Sound Pessure Level [dB]  / [2.83V 1m] "
20.5078	49.6404	20.5078	46.7078	20.5078	48.4171
21.9727	51.1548	21.9727	51.0998	21.9727	51.1273
23.4375	56.2594	23.4375	55.4662	23.4375	55.8809
24.9023	58.6103	24.9023	58.0601	24.9023	58.3439
26.3672	61.5143	26.3672	61.1687	26.3672	61.3449
27.832	64.2522	27.832	63.6277	27.832	63.9511
29.2969	66.2144	29.2969	65.6148	29.2969	65.9249
30.7617	68.2176	30.7617	67.6423	30.7617	67.9395
32.2266	69.9621	32.2266	69.4388	32.2266	69.7084
33.6914	71.6536	33.6914	71.1044	33.6914	71.3877
35.1562	73.2946	35.1562	72.7718	35.1562	73.041
36.6211	74.6761	36.6211	74.1671	36.6211	74.4291
38.0859	75.9128	38.0859	75.4288	38.0859	75.6775
39.5508	77.0489	39.5508	76.5734	39.5508	76.8177
41.0156	78.0667	41.0156	77.6221	41.0156	77.8501
42.4805	79.0282	42.4805	78.6032	42.4805	78.8209
43.9453	79.7774	43.9453	79.3639	43.9453	79.5756
45.4102	80.5717	45.4102	80.1863	45.4102	80.3833
46.875	81.225	46.875	80.8639	46.875	81.0482
48.3398	81.8147	48.3398	81.4618	48.3398	81.6418
51.2695	82.8851	51.2695	82.5479	51.2695	82.7198
52.7344	83.3653	52.7344	83.0496	52.7344	83.2103
54.1992	83.8324	54.1992	83.5347	54.1992	83.6861
55.6641	84.2896	55.6641	84.0043	55.6641	84.1493
58.5938	84.9879	58.5938	84.6523	58.5938	84.8234
60.0586	85.3001	60.0586	84.9751	60.0586	85.1406
62.9883	85.858	62.9883	85.5459	62.9883	85.7047
64.4531	86.0988	64.4531	85.7906	64.4531	85.9474
67.3828	86.4856	67.3828	86.1736	67.3828	86.3324
68.8477	86.7047	68.8477	86.3855	68.8477	86.548
71.7773	87.1088	71.7773	86.794	71.7773	86.9543
74.707	87.4496	74.707	87.13	74.707	87.2927
77.6367	87.6443	77.6367	87.3205	77.6367	87.4854
79.1016	87.71	79.1016	87.362	79.1016	87.5395
82.0312	87.8076	82.0312	87.4551	82.0312	87.6349
84.9609	87.9493	84.9609	87.6124	84.9609	87.7841
87.8906	87.9301	87.8906	87.5686	87.8906	87.7531
90.8203	88.1341	90.8203	87.7312	90.8203	87.9373
95.2148	88.0052	95.2148	87.6246	95.2148	87.8191
98.1445	87.7805	98.1445	87.3638	98.1445	87.5772
101.074	87.6512	101.074	87.206	101.074	87.4343
105.469	87.895	105.469	87.486	105.469	87.6953
108.398	87.9144	108.398	87.6043	108.398	87.7621
112.793	87.9388	112.793	87.5503	112.793	87.7489
117.188	87.8328	117.188	87.3722	117.188	87.6086
120.117	87.912	120.117	87.4803	120.117	87.7015
124.512	87.6897	124.512	87.286	124.512	87.4926
128.906	87.2303	128.906	86.7623	128.906	87.0026
133.301	87.2328	133.301	86.7262	133.301	86.9868
139.16	87.0972	139.16	86.678	139.16	86.8927
143.555	86.8818	143.555	86.4527	143.555	86.6726
147.949	86.8839	147.949	86.3626	147.949	86.6311
153.809	86.9164	153.809	86.3161	153.809	86.6266
159.668	86.8599	159.668	86.3356	159.668	86.6056
165.527	86.7493	165.527	86.3128	165.527	86.5365
171.387	86.5722	171.387	86.1053	171.387	86.3451
177.246	86.6065	177.246	86.0858	177.246	86.354
183.105	86.3111	183.105	85.8171	183.105	86.0712
188.965	86.1121	188.965	85.6282	188.965	85.8769
196.289	86.2811	196.289	85.8025	196.289	86.0484
203.613	86.1265	203.613	85.7447	203.613	85.9398
210.938	86.3086	210.938	85.7222	210.938	86.0253
218.262	86.0383	218.262	85.5415	218.262	85.797
225.586	86.0667	225.586	85.4823	225.586	85.7843
232.91	86.1412	232.91	85.6768	232.91	85.9152
241.699	85.9747	241.699	85.4017	241.699	85.6976
250.488	86.119	250.488	85.3221	250.488	85.7388
259.277	86.3644	259.277	85.6938	259.277	86.042
268.066	85.9677	268.066	85.1936	268.066	85.5979
276.855	85.9753	276.855	85.4833	276.855	85.7363
287.109	86.0318	287.109	85.4031	287.109	85.7288
297.363	86.0044	297.363	85.1802	297.363	85.6118
307.617	86.2225	307.617	85.5642	307.617	85.9058
319.336	86.1222	319.336	85.6149	319.336	85.876
329.59	85.688	329.59	85.1506	329.59	85.4276
341.309	85.647	341.309	85.0066	341.309	85.3386
353.027	85.7229	353.027	84.9922	353.027	85.3729
366.211	85.5387	366.211	84.9293	366.211	85.2447
379.395	86.204	379.395	85.6698	379.395	85.9451
392.578	85.749	392.578	85.2611	392.578	85.5119
405.762	85.8549	405.762	85.0797	405.762	85.4846
420.41	85.8794	420.41	85	420.41	85.4619
435.059	85.2673	435.059	84.8007	435.059	85.0403
451.172	86.1242	451.172	84.8009	451.172	85.5127
465.82	85.9586	465.82	84.7988	465.82	85.4173
483.398	85.4984	483.398	85.0601	483.398	85.2848
499.512	85.1879	499.512	84.6016	499.512	84.9046
517.09	85.6299	517.09	84.6476	517.09	85.1665
536.133	85.6346	536.133	83.5743	536.133	84.7255
555.176	87.3214	555.176	84.1157	555.176	86.0078
574.219	87.7741	574.219	85.187	574.219	86.6704
594.727	86.3271	594.727	85.0589	594.727	85.7391
615.234	85.2691	615.234	84.7082	615.234	84.9977
637.207	85.0402	637.207	84.0967	637.207	84.594
659.18	84.1508	659.18	83.5463	659.18	83.8591
682.617	82.5708	682.617	83.6458	682.617	83.1414
707.52	82.5109	707.52	84.4036	707.52	83.5595
732.422	84.2351	732.422	85.5034	732.422	84.9154
757.324	85.7827	757.324	85.6266	757.324	85.7053
785.156	85.3066	785.156	85.3921	785.156	85.3496
811.523	84.9855	811.523	84.4202	811.523	84.7121
840.82	85.0455	840.82	84.0238	840.82	84.5646
870.117	83.7522	870.117	84.1478	870.117	83.9545
900.879	83.8073	900.879	84.0951	900.879	83.9536
933.105	83.8441	933.105	83.9716	933.105	83.9083
965.332	83.315	965.332	84.5412	965.332	83.9712
1,000.49	82.9085	1,000.49	83.0687	1,000.49	82.9893
1,035.64	82.8049	1,035.64	84.7594	1,035.64	83.8912
1,072.27	84.0881	1,072.27	84.9919	1,072.27	84.5635
1,108.89	84.4058	1,108.89	84.4484	1,108.89	84.4271
1,148.44	84.2688	1,148.44	83.4521	1,148.44	83.8796
1,189.45	84.1412	1,189.45	83.1664	1,189.45	83.6811
1,230.47	84.2926	1,230.47	84.6238	1,230.47	84.4614
1,274.41	84.6758	1,274.41	83.6605	1,274.41	84.1977
1,319.82	84.987	1,319.82	84.0238	1,319.82	84.532
1,366.7	86.3658	1,366.7	85.1843	1,366.7	85.8151
1,413.57	86.6359	1,413.57	84.5948	1,413.57	85.7342
1,463.38	86.6197	1,463.38	83.8245	1,463.38	85.4432
1,516.11	86.5388	1,516.11	82.5416	1,516.11	84.9847
1,568.85	86.1885	1,568.85	83.0724	1,568.85	84.9042
1,624.51	85.4301	1,624.51	82.9756	1,624.51	84.374
1,681.64	86.0791	1,681.64	83.914	1,681.64	85.1301
1,741.7	85.1966	1,741.7	82.2938	1,741.7	83.9834
1,803.22	84.9321	1,803.22	81.7031	1,803.22	83.611
1,866.21	83.8641	1,866.21	81.2232	1,866.21	82.7414
1,932.13	82.0945	1,932.13	79.8917	1,932.13	81.1313
1,999.51	81.4366	1,999.51	79.5923	1,999.51	80.6117
2,069.82	80.3657	2,069.82	78.9432	2,069.82	79.7124
2,143.07	80.7192	2,143.07	78.5327	2,143.07	79.7621
2,219.24	80.1246	2,219.24	78.3503	2,219.24	79.3274
2,296.88	78.1802	2,296.88	78.0715	2,296.88	78.1262
2,378.91	76.7009	2,378.91	77.9137	2,378.91	77.3495
2,462.4	77.3844	2,462.4	78.6231	2,462.4	78.0478
2,548.83	78.625	2,548.83	78.5369	2,548.83	78.5811
2,639.65	79.3174	2,639.65	78.7444	2,639.65	79.0403
2,731.93	80.6786	2,731.93	79.0508	2,731.93	79.9405
2,828.61	81.405	2,828.61	79.4517	2,828.61	80.5373
2,928.22	81.6711	2,928.22	80.4018	2,928.22	81.0827
3,030.76	82.3553	3,030.76	81.0343	3,030.76	81.7448
3,137.7	82.6468	3,137.7	81.7137	3,137.7	82.2053
3,249.02	82.4541	3,249.02	82.2209	3,249.02	82.3391
3,363.28	82.2299	3,363.28	82.5177	3,363.28	82.3762
3,481.93	82.6116	3,481.93	83.1607	3,481.93	82.8949
3,604.98	83.2326	3,604.98	83.6316	3,604.98	83.4367
3,732.42	82.9689	3,732.42	83.4155	3,732.42	83.198
3,864.26	83.1631	3,864.26	83.211	3,864.26	83.1871
4,000.49	82.7106	4,000.49	82.6333	4,000.49	82.6721
4,141.11	81.8277	4,141.11	82.471	4,141.11	82.1613
4,287.6	81.3698	4,287.6	81.7507	4,287.6	81.5644
4,438.48	81.7549	4,438.48	80.9511	4,438.48	81.3716
4,595.21	81.9845	4,595.21	79.9999	4,595.21	81.1046
4,756.35	81.2635	4,756.35	79.9811	4,756.35	80.6694
4,924.8	80.955	4,924.8	79.7529	4,924.8	80.3954
5,097.66	81.0788	5,097.66	79.9774	5,097.66	80.5629
5,277.83	80.866	5,277.83	79.9967	5,277.83	80.4531
5,463.87	80.9399	5,463.87	80.4436	5,463.87	80.6988
5,657.23	81.3166	5,657.23	80.0036	5,657.23	80.7096
5,856.45	81.6253	5,856.45	79.7735	5,856.45	80.7973
6,062.99	81.5508	6,062.99	79.8625	6,062.99	80.7882
6,276.86	79.9593	6,276.86	80.8465	6,276.86	80.4255
6,498.05	80.111	6,498.05	81.7068	6,498.05	80.9818
6,726.56	81.1047	6,726.56	82.6076	6,726.56	81.9208
6,963.87	80.8272	6,963.87	83.157	6,963.87	82.1465
7,209.96	80.7368	7,209.96	83.6807	7,209.96	82.4535
7,464.84	81.1568	7,464.84	83.9615	7,464.84	82.7818
7,727.05	81.4966	7,727.05	83.9971	7,727.05	82.9244
7,999.51	81.5391	7,999.51	83.5339	7,999.51	82.65
8,282.23	81.7412	8,282.23	82.9172	8,282.23	82.3689
8,573.73	82.0019	8,573.73	82.1915	8,573.73	82.0977
8,876.95	81.7141	8,876.95	80.8304	8,876.95	81.2947
9,188.96	80.7743	9,188.96	79.1195	9,188.96	80.0253
9,514.16	79.7131	9,514.16	78.512	9,514.16	79.1539
9,849.61	78.274	9,849.61	78.5777	9,849.61	78.4285
10,196.8	77.5358	10,196.8	79.3319	10,196.8	78.526
10,555.7	77.2169	10,555.7	80.0437	10,555.7	78.8563
10,927.7	76.8897	10,927.7	80.5592	10,927.7	79.101
11,313	76.8817	11,313	80.7655	11,313	79.244
11,712.9	77.601	11,712.9	80.9985	11,712.9	79.6238
12,126	78.5733	12,126	81.1724	12,126	80.0645
12,553.7	78.8156	12,553.7	80.6355	12,553.7	79.8202
12,996.1	78.7444	12,996.1	79.7722	12,996.1	79.2886
13,454.6	78.3977	13,454.6	78.7245	13,454.6	78.5642
13,929.2	78.8153	13,929.2	78.1034	13,929.2	78.4739
14,419.9	78.5452	14,419.9	77.0439	14,419.9	77.8591
14,928.2	77.8136	14,928.2	76.5602	14,928.2	77.232
15,455.6	76.5948	15,455.6	76.8822	15,455.6	76.7409
16,000.5	74.5655	16,000.5	76.965	16,000.5	75.9289
16,564.5	73.7769	16,564.5	75.6776	16,564.5	74.8304
17,148.9	73.7763	17,148.9	74.3212	17,148.9	74.0573
17,752.4	74.2929	17,752.4	71.9955	17,752.4	73.2944
18,379.4	74.4281	18,379.4	68.7252	18,379.4	72.4523
19,026.9	73.7859	19,026.9	64.1112	19,026.9	71.2201
19,697.8	72.5311	19,697.8	60.3525	19,697.8	69.7762
19,999.5	71.8869	19,999.5	58.1327	19,999.5	69.0558
