* Freq[Hz]      Mag   Phase[Deg]
5.00000    116.816     0.000
5.07273    115.682     0.000
5.14651    114.548     0.000
5.22137    113.414     0.000
5.29732    112.281     0.000
5.37437    111.147     0.000
5.45254    110.014     0.000
5.53185    108.881     0.000
5.61231    107.748     0.000
5.69394    106.616     0.000
5.77676    105.483     0.000
5.86079    104.351     0.000
5.94604    103.220     0.000
6.03252    102.088     0.000
6.12027    100.957     0.000
6.20929     99.826     0.000
6.29961     98.696     0.000
6.39124     97.566     0.000
6.48420     96.437     0.000
6.57851     95.308     0.000
6.67420     94.179     0.000
6.77128     93.051     0.000
6.86977     91.924     0.000
6.96969     90.797     0.000
7.07107     89.671     0.000
7.17392     88.546     0.000
7.27827     87.421     0.000
7.38413     86.297     0.000
7.49154     85.174     0.000
7.60050     84.053     0.000
7.71105     82.932     0.000
7.82321     81.812     0.000
7.93701     80.693     0.000
8.05245     79.576     0.000
8.16958     78.460     0.000
8.28841     77.345     0.000
8.40896     76.232     0.000
8.53128     75.120     0.000
8.65537     74.011     0.000
8.78126     72.903     0.000
8.90899     71.797     0.000
9.03857     70.694     0.000
9.17004     69.592     0.000
9.30342     68.493     0.000
9.43874     67.397     0.000
9.57603     66.304     0.000
9.71532     65.214     0.000
9.85663     64.127     0.000
10.0000     63.043     0.000
10.1455     61.963     0.000
10.2930     60.887     0.000
10.4427     59.816     0.000
10.5946     58.748     0.000
10.7487     57.686     0.000
10.9051     56.628     0.000
11.0637     55.576     0.000
11.2246     54.529     0.000
11.3879     53.488     0.000
11.5535     52.454     0.000
11.7216     51.426     0.000
11.8921     50.405     0.000
12.0650     49.391     0.000
12.2405     48.385     0.000
12.4186     47.387     0.000
12.5992     46.398     0.000
12.7825     45.417     0.000
12.9684     44.446     0.000
13.1570     43.485     0.000
13.3484     42.533     0.000
13.5426     41.593     0.000
13.7395     40.664     0.000
13.9394     39.746     0.000
14.1421     38.841     0.000
14.3478     37.948     0.000
14.5565     37.070     0.000
14.7683     36.206     0.000
14.9831     35.358     0.000
15.2010     34.526     0.000
15.4221     33.712     0.000
15.6464     32.918     0.000
15.8740     32.145     0.000
16.1049     31.396     0.000
16.3392     30.672     0.000
16.5768     29.978     0.000
16.8179     29.315     0.000
17.0626     28.689     0.000
17.3107     28.104     0.000
17.5625     27.565     0.000
17.8180     27.076     0.000
18.0771     26.644     0.000
18.3401     26.274     0.000
18.6068     26.179     0.000
18.8775     26.122     0.000
19.1521     26.076     0.000
19.4306     26.030     0.000
19.7133     26.068     0.000
20.0000     26.087     0.000
20.2909     26.178     0.000
20.5860     26.341     0.000
20.8855     26.523     0.000
21.1893     26.820     0.000
21.4975     27.126     0.000
21.8102     27.529     0.000
22.1274     27.973     0.000
22.4492     28.430     0.000
22.7758     28.913     0.000
23.1071     29.356     0.000
23.4432     29.817     0.000
23.7841     30.185     0.000
24.1301     30.574     0.000
24.4811     30.864     0.000
24.8372     31.160     0.000
25.1984     31.361     0.000
25.5649     31.551     0.000
25.9368     31.674     0.000
26.3141     31.788     0.000
26.6968     31.909     0.000
27.0851     32.039     0.000
27.4791     32.318     0.000
27.8788     32.643     0.000
28.2843     33.219     0.000
28.6957     33.894     0.000
29.1131     34.769     0.000
29.5365     35.749     0.000
29.9661     36.810     0.000
30.4020     37.912     0.000
30.8442     39.015     0.000
31.2929     40.085     0.000
31.7480     41.112     0.000
32.2098     42.103     0.000
32.6783     43.008     0.000
33.1536     43.877     0.000
33.6359     44.696     0.000
34.1251     45.453     0.000
34.6215     46.178     0.000
35.1250     46.869     0.000
35.6359     47.515     0.000
36.1543     48.138     0.000
36.6802     48.737     0.000
37.2137     49.302     0.000
37.7550     49.913     0.000
38.3041     50.433     0.000
38.8613     50.795     0.000
39.4265     51.229     0.000
40.0000     51.628     0.000
40.5818     52.001     0.000
41.1721     52.356     0.000
41.7710     52.710     0.000
42.3785     53.099     0.000
42.9949     53.565     0.000
43.6203     54.140     0.000
44.2548     54.851     0.000
44.8985     55.711     0.000
45.5515     56.714     0.000
46.2141     57.834     0.000
46.8863     59.030     0.000
47.5683     60.261     0.000
48.2602     61.487     0.000
48.9621     62.687     0.000
49.6743     63.845     0.000
50.3968     64.955     0.000
51.1299     66.013     0.000
51.8736     67.016     0.000
52.6281     67.966     0.000
53.3936     68.863     0.000
54.1702     69.705     0.000
54.9581     70.493     0.000
55.7575     71.224     0.000
56.5685     71.901     0.000
57.3914     72.524     0.000
58.2261     73.096     0.000
59.0730     73.620     0.000
59.9323     74.101     0.000
60.8040     74.547     0.000
61.6884     74.965     0.000
62.5857     75.404     0.000
63.4960     75.848     0.000
64.4196     76.175     0.000
65.3566     76.587     0.000
66.3073     77.015     0.000
67.2717     77.452     0.000
68.2502     77.894     0.000
69.2429     78.332     0.000
70.2501     78.759     0.000
71.2719     79.166     0.000
72.3086     79.551     0.000
73.3603     79.913     0.000
74.4274     80.253     0.000
75.5099     80.580     0.000
76.6083     80.897     0.000
77.7226     81.207     0.000
78.8531     81.512     0.000
80.0000     81.808     0.000
81.1636     82.092     0.000
82.3442     82.363     0.000
83.5419     82.624     0.000
84.7570     82.880     0.000
85.9899     83.136     0.000
87.2406     83.399     0.000
88.5096     83.693     0.000
89.7970     83.923     0.000
91.1031     84.156     0.000
92.4282     84.401     0.000
93.7726     84.644     0.000
95.1366     84.886     0.000
96.5204     85.123     0.000
97.9243     85.348     0.000
99.3486     85.552     0.000
100.794     85.735     0.000
102.260     85.903     0.000
103.747     86.066     0.000
105.256     86.231     0.000
106.787     86.381     0.000
108.340     86.527     0.000
109.916     86.663     0.000
111.515     86.793     0.000
113.137     86.945     0.000
114.783     87.088     0.000
116.452     87.224     0.000
118.146     87.395     0.000
119.865     87.578     0.000
121.608     87.759     0.000
123.377     87.923     0.000
125.171     88.062     0.000
126.992     88.182     0.000
128.839     88.289     0.000
130.713     88.383     0.000
132.615     88.463     0.000
134.543     88.532     0.000
136.500     88.599     0.000
138.486     88.668     0.000
140.500     88.721     0.000
142.544     88.761     0.000
144.617     88.803     0.000
146.721     88.844     0.000
148.855     88.880     0.000
151.020     88.912     0.000
153.217     88.946     0.000
155.445     88.977     0.000
157.706     89.000     0.000
160.000     89.020     0.000
162.327     89.036     0.000
164.688     89.030     0.000
167.084     89.004     0.000
169.514     88.979     0.000
171.980     88.950     0.000
174.481     88.904     0.000
177.019     88.846     0.000
179.594     88.782     0.000
182.206     88.699     0.000
184.856     88.599     0.000
187.545     88.490     0.000
190.273     88.391     0.000
193.041     88.297     0.000
195.849     88.204     0.000
198.697     88.104     0.000
201.587     88.000     0.000
204.520     87.894     0.000
207.494     87.783     0.000
210.512     87.693     0.000
213.574     87.644     0.000
216.681     87.613     0.000
219.833     87.595     0.000
223.030     87.613     0.000
226.274     87.663     0.000
229.565     87.735     0.000
232.905     87.830     0.000
236.292     87.928     0.000
239.729     88.013     0.000
243.216     88.073     0.000
246.754     88.091     0.000
250.343     88.051     0.000
253.984     87.966     0.000
257.678     87.857     0.000
261.426     87.727     0.000
265.229     87.590     0.000
269.087     87.485     0.000
273.001     87.400     0.000
276.972     87.317     0.000
281.000     87.251     0.000
285.088     87.221     0.000
289.234     87.234     0.000
293.441     87.260     0.000
297.709     87.288     0.000
302.040     87.314     0.000
306.433     87.342     0.000
310.890     87.373     0.000
315.412     87.399     0.000
320.000     87.427     0.000
324.655     87.441     0.000
329.377     87.462     0.000
334.168     87.471     0.000
339.028     87.465     0.000
343.959     87.440     0.000
348.962     87.370     0.000
354.038     87.225     0.000
359.188     87.066     0.000
364.412     87.008     0.000
369.713     87.061     0.000
375.090     87.139     0.000
380.546     87.225     0.000
386.081     87.285     0.000
391.697     87.279     0.000
397.394     87.212     0.000
403.175     87.093     0.000
409.039     86.971     0.000
414.989     86.838     0.000
421.025     86.702     0.000
427.149     86.552     0.000
433.362     86.386     0.000
439.665     86.212     0.000
446.060     86.076     0.000
452.548     86.012     0.000
459.131     85.985     0.000
465.809     85.954     0.000
472.584     85.907     0.000
479.458     85.839     0.000
486.432     85.718     0.000
493.507     85.566     0.000
500.686     85.398     0.000
507.968     85.269     0.000
515.357     85.222     0.000
522.853     85.237     0.000
530.458     85.275     0.000
538.174     85.293     0.000
546.002     85.325     0.000
553.943     85.369     0.000
562.001     85.421     0.000
570.175     85.485     0.000
578.469     85.572     0.000
586.883     85.702     0.000
595.419     85.861     0.000
604.080     86.005     0.000
612.866     86.120     0.000
621.780     86.167     0.000
630.824     86.090     0.000
640.000     85.900     0.000
649.309     85.622     0.000
658.753     85.364     0.000
668.335     85.161     0.000
678.056     85.024     0.000
687.919     85.003     0.000
697.925     85.027     0.000
708.077     85.002     0.000
718.376     84.847     0.000
728.825     84.566     0.000
739.426     84.247     0.000
750.181     83.971     0.000
761.093     83.817     0.000
772.163     83.910     0.000
783.394     84.243     0.000
794.789     84.559     0.000
806.349     84.720     0.000
818.078     84.758     0.000
829.977     84.755     0.000
842.050     84.706     0.000
854.298     84.597     0.000
866.724     84.462     0.000
879.330     84.362     0.000
892.120     84.372     0.000
905.097     84.452     0.000
918.262     84.474     0.000
931.618     84.336     0.000
945.169     84.033     0.000
958.917     83.625     0.000
972.864     83.284     0.000
987.015     83.215     0.000
1001.37     83.405     0.000
1015.94     83.571     0.000
1030.71     83.493     0.000
1045.71     83.231     0.000
1060.92     82.990     0.000
1076.35     82.933     0.000
1092.00     83.014     0.000
1107.89     83.049     0.000
1124.00     82.962     0.000
1140.35     82.855     0.000
1156.94     82.771     0.000
1173.77     82.672     0.000
1190.84     82.558     0.000
1208.16     82.477     0.000
1225.73     82.468     0.000
1243.56     82.574     0.000
1261.65     82.595     0.000
1280.00     82.420     0.000
1298.62     82.245     0.000
1317.51     82.219     0.000
1336.67     82.358     0.000
1356.11     82.530     0.000
1375.84     82.574     0.000
1395.85     82.462     0.000
1416.15     82.386     0.000
1436.75     82.439     0.000
1457.65     82.621     0.000
1478.85     82.680     0.000
1500.36     82.553     0.000
1522.19     82.408     0.000
1544.33     82.404     0.000
1566.79     82.622     0.000
1589.58     82.773     0.000
1612.70     82.816     0.000
1636.16     82.821     0.000
1659.95     82.912     0.000
1684.10     83.042     0.000
1708.60     83.039     0.000
1733.45     82.951     0.000
1758.66     82.894     0.000
1784.24     82.881     0.000
1810.19     82.912     0.000
1836.52     82.851     0.000
1863.24     82.722     0.000
1890.34     82.669     0.000
1917.83     82.666     0.000
1945.73     82.560     0.000
1974.03     82.478     0.000
2002.74     82.471     0.000
2031.87     82.337     0.000
2061.43     82.234     0.000
2091.41     82.222     0.000
2121.83     82.308     0.000
2152.69     82.485     0.000
2184.01     82.662     0.000
2215.77     82.841     0.000
2248.00     82.859     0.000
2280.70     83.018     0.000
2313.87     83.061     0.000
2347.53     82.737     0.000
2381.68     82.762     0.000
2416.32     82.542     0.000
2451.46     82.090     0.000
2487.12     82.035     0.000
2523.30     81.794     0.000
2560.00     81.578     0.000
2597.24     81.697     0.000
2635.01     81.583     0.000
2673.34     81.521     0.000
2712.23     81.526     0.000
2751.68     81.527     0.000
2791.70     81.442     0.000
2832.31     81.398     0.000
2873.50     81.167     0.000
2915.30     80.739     0.000
2957.70     80.369     0.000
3000.72     79.866     0.000
3044.37     79.635     0.000
3088.65     79.328     0.000
3133.58     79.110     0.000
3179.16     79.066     0.000
3225.40     78.988     0.000
3272.31     79.156     0.000
3319.91     79.342     0.000
3368.20     79.561     0.000
3417.19     79.739     0.000
3466.89     79.695     0.000
3517.32     79.718     0.000
3568.48     79.732     0.000
3620.39     79.930     0.000
3673.05     80.226     0.000
3726.47     80.573     0.000
3780.67     80.868     0.000
3835.67     81.094     0.000
3891.46     81.183     0.000
3948.06     81.179     0.000
4005.49     81.116     0.000
4063.75     80.888     0.000
4122.86     80.793     0.000
4182.82     80.822     0.000
4243.66     81.030     0.000
4305.39     81.328     0.000
4368.01     81.558     0.000
4431.55     81.666     0.000
4496.01     81.664     0.000
4561.40     81.488     0.000
4627.75     81.238     0.000
4695.06     81.160     0.000
4763.35     81.167     0.000
4832.64     81.218     0.000
4902.93     81.312     0.000
4974.24     81.208     0.000
5046.60     80.956     0.000
5120.00     80.627     0.000
5194.47     80.418     0.000
5270.03     80.345     0.000
5346.68     80.389     0.000
5424.45     80.500     0.000
5503.35     80.484     0.000
5583.40     80.350     0.000
5664.61     80.254     0.000
5747.01     80.139     0.000
5830.60     80.184     0.000
5915.41     80.359     0.000
6001.45     80.387     0.000
6088.74     80.309     0.000
6177.30     80.133     0.000
6267.15     79.847     0.000
6358.31     79.818     0.000
6450.80     79.882     0.000
6544.62     79.917     0.000
6639.82     79.908     0.000
6736.40     79.726     0.000
6834.38     79.688     0.000
6933.79     79.868     0.000
7034.64     80.102     0.000
7136.96     80.298     0.000
7240.77     80.463     0.000
7346.09     80.604     0.000
7452.94     80.892     0.000
7561.35     81.228     0.000
7671.33     81.425     0.000
7782.91     81.599     0.000
7896.12     81.763     0.000
8010.97     81.989     0.000
8127.49     82.267     0.000
8245.71     82.435     0.000
8365.65     82.532     0.000
8487.33     82.612     0.000
8610.78     82.612     0.000
8736.03     82.558     0.000
8863.09     82.406     0.000
8992.01     82.282     0.000
9122.80     82.160     0.000
9255.50     82.083     0.000
9390.12     82.044     0.000
9526.70     81.937     0.000
9665.27     81.827     0.000
9805.86     81.679     0.000
9948.49     81.552     0.000
10093.2     81.524     0.000
10240.0     81.698     0.000
10388.9     81.948     0.000
10540.1     82.329     0.000
10693.4     82.735     0.000
10848.9     83.035     0.000
11006.7     83.354     0.000
11166.8     83.596     0.000
11329.2     83.706     0.000
11494.0     83.758     0.000
11661.2     83.691     0.000
11830.8     83.468     0.000
12002.9     83.163     0.000
12177.5     82.771     0.000
12354.6     82.352     0.000
12534.3     81.843     0.000
12716.6     81.261     0.000
12901.6     80.610     0.000
13089.2     79.872     0.000
13279.6     79.278     0.000
13472.8     78.868     0.000
13668.8     78.656     0.000
13867.6     78.608     0.000
14069.3     78.577     0.000
14273.9     78.524     0.000
14481.5     78.519     0.000
14692.2     78.563     0.000
14905.9     78.620     0.000
15122.7     78.598     0.000
15342.7     78.473     0.000
15565.8     78.209     0.000
15792.2     77.879     0.000
16021.9     77.615     0.000
16255.0     77.516     0.000
16491.4     77.540     0.000
16731.3     77.576     0.000
16974.7     77.559     0.000
17221.6     77.391     0.000
17472.1     77.204     0.000
17726.2     77.042     0.000
17984.0     76.873     0.000
18245.6     76.627     0.000
18511.0     76.331     0.000
18780.2     76.075     0.000
19053.4     75.899     0.000
19330.5     75.711     0.000
19611.7     75.476     0.000
19897.0     75.158     0.000
20186.4     74.701     0.000
20480.0     74.176     0.000
20777.9     73.559     0.000
21080.1     72.897     0.000
21386.7     72.240     0.000
21697.8     71.552     0.000
22013.4     70.718     0.000
22333.6     70.007     0.000
22658.4     69.336     0.000
22988.0     68.256     0.000
23322.4     66.976     0.000
23661.6     65.897     0.000
24005.8     65.065     0.000
24355.0     64.405     0.000
24709.2     63.792     0.000
25068.6     63.428     0.000
25433.2     63.564     0.000
25803.2     64.110     0.000
26178.5     64.706     0.000
26559.3     64.974     0.000
26945.6     64.673     0.000
27337.5     64.041     0.000
27735.2     63.529     0.000
28138.6     63.310     0.000
28547.9     63.270     0.000
28963.1     63.188     0.000
29384.4     63.207     0.000
29811.8     63.554     0.000
30245.4     63.964     0.000
30685.3     64.271     0.000
31131.7     64.327     0.000
31584.5     64.330     0.000
32043.9     64.493     0.000
32510.0     64.765     0.000
32982.8     65.039     0.000
33462.6     65.103     0.000
33949.3     64.888     0.000
34443.1     64.513     0.000
34944.1     64.133     0.000
35452.4     63.970     0.000
35968.0     63.979     0.000
36491.2     63.943     0.000
37022.0     63.825     0.000
37560.5     63.620     0.000
38106.8     63.353     0.000
38661.1     63.166     0.000
39223.4     63.121     0.000
39793.9     63.161     0.000
