* Freq[Hz]     dBSPL  Phase[Deg]
5.00000    111.267   -99.952
5.07273    110.385  -100.678
5.14651    109.503  -101.414
5.22137    108.620  -102.160
5.29732    107.738  -102.918
5.37437    106.856  -103.686
5.45254    105.973  -104.466
5.53185    105.091  -105.257
5.61231    104.209  -106.060
5.69394    103.326  -106.874
5.77676    102.444  -107.700
5.86079    101.562  -108.538
5.94604    100.679  -109.388
6.03252     99.797  -110.251
6.12027     98.915  -111.126
6.20929     98.032  -112.014
6.29961     97.150  -112.915
6.39124     96.267  -113.828
6.48420     95.385  -114.756
6.57851     94.503  -115.696
6.67420     93.620  -116.651
6.77128     92.738  -117.619
6.86977     91.856  -118.601
6.96969     90.973  -119.598
7.07107     90.091  -120.609
7.17392     89.209  -121.635
7.27827     88.326  -122.676
7.38413     87.444  -123.732
7.49154     86.562  -124.803
7.60050     85.679  -125.890
7.71105     84.797  -126.992
7.82321     83.915  -128.111
7.93701     83.032  -129.246
8.05245     82.150  -130.397
8.16958     81.268  -131.565
8.28841     80.385  -132.751
8.40896     79.503  -133.953
8.53128     78.621  -135.173
8.65537     77.738  -136.411
8.78126     76.856  -137.666
8.90899     75.974  -138.940
9.03857     75.091  -140.233
9.17004     74.209  -141.544
9.30342     73.326  -142.874
9.43874     72.444  -144.224
9.57603     71.562  -145.593
9.71532     70.679  -146.983
9.85663     69.797  -148.392
10.0000     68.915  -149.822
10.1455     68.032  -151.273
10.2930     67.150  -152.745
10.4427     66.268  -154.238
10.5946     65.385  -155.753
10.7487     64.503  -157.290
10.9051     63.621  -158.849
11.0637     62.738  -160.431
11.2246     61.856  -162.036
11.3879     60.974  -163.665
11.5535     60.091  -165.317
11.7216     59.209  -166.993
11.8921     58.327  -168.693
12.0650     57.444  -170.419
12.2405     56.562  -172.169
12.4186     55.680  -173.945
12.5992     54.797  -175.746
12.7825     53.915  -177.574
12.9684     53.033  -179.428
13.1570     52.150   178.690
13.3484     51.268   176.781
13.5426     50.385   174.845
13.7395     49.503   172.880
13.9394     48.621   170.887
14.1421     47.738   168.865
14.3478     46.856   166.813
14.5565     45.974   164.732
14.7683     45.091   162.620
14.9831     44.209   160.477
15.2010     43.327   158.304
15.4221     42.444   156.098
15.6464     41.562   153.861
15.8740     40.680   151.591
16.1049     39.797   149.288
16.3392     38.915   146.952
16.5768     38.033   144.582
16.8179     37.150   142.177
17.0626     36.268   139.737
17.3107     35.386   137.262
17.5625     34.503   134.750
17.8180     33.621   132.202
18.0771     32.739   129.617
18.3401     31.856   126.995
18.6068     31.775   124.447
18.8775     31.694   121.899
19.1521     31.551   118.703
19.4306     31.313   114.518
19.7133     31.075   110.333
20.0000     30.627   105.908
20.2909     30.121   101.416
20.5860     29.508    96.928
20.8855     28.600    92.450
21.1893     27.691    87.972
21.4975     26.153    84.403
21.8102     24.489    81.015
22.1274     22.339    84.337
22.4492     19.676    94.756
22.7758     17.423   106.765
23.1071     16.669   124.568
23.4432     15.943   142.385
23.7841     16.872   161.047
24.1301     17.801   179.709
24.4811     20.368  -174.697
24.8372     23.146  -170.789
25.1984     24.672  -172.434
25.5649     25.919  -175.310
25.9368     26.589  -177.830
26.3141     27.125   179.733
26.6968     27.321   179.187
27.0851     27.463   178.947
27.4791     27.578  -178.061
27.8788     27.739  -174.651
28.2843     28.261  -169.009
28.6957     28.975  -163.423
29.1131     30.101  -157.958
29.5365     31.466  -154.086
29.9661     33.016  -151.444
30.4020     34.609  -151.679
30.8442     36.178  -152.830
31.2929     37.616  -155.844
31.7480     38.942  -159.561
32.2098     40.179  -163.841
32.6783     41.236  -168.738
33.1536     42.223  -173.768
33.6359     43.116  -178.958
34.1251     43.891   175.819
34.6215     44.610   170.637
35.1250     45.263   165.524
35.6359     45.835   160.612
36.1543     46.367   155.857
36.6802     46.860   151.274
37.2137     47.307   146.976
37.7550     47.856   141.737
38.3041     48.278   137.786
38.8613     48.467   136.184
39.4265     48.840   133.092
40.0000     49.214   130.398
40.5818     49.601   128.096
41.1721     50.015   126.207
41.7710     50.472   124.736
42.3785     51.014   123.706
42.9949     51.652   122.908
43.6203     52.396   122.169
44.2548     53.250   121.308
44.8985     54.211   120.127
45.5515     55.265   118.445
46.2141     56.390   116.119
46.8863     57.559   113.070
47.5683     58.742   109.249
48.2602     59.916   104.751
48.9621     61.065    99.658
49.6743     62.179    94.048
50.3968     63.250    87.993
51.1299     64.276    81.558
51.8736     65.252    74.799
52.6281     66.179    67.763
53.3936     67.054    60.492
54.1702     67.876    53.026
54.9581     68.642    45.405
55.7575     69.349    37.675
56.5685     69.999    29.894
57.3914     70.594    22.117
58.2261     71.136    14.399
59.0730     71.630     6.795
59.9323     72.083    -0.648
60.8040     72.505    -7.892
61.6884     72.903   -14.891
62.5857     73.363   -22.818
63.4960     73.842   -30.773
64.4196     74.093   -34.689
65.3566     74.502   -41.034
66.3073     74.931   -47.508
67.2717     75.369   -54.038
68.2502     75.810   -60.673
69.2429     76.246   -67.431
70.2501     76.670   -74.293
71.2719     77.075   -81.248
72.3086     77.459   -88.248
73.3603     77.824   -95.255
74.4274     78.170  -102.237
75.5099     78.505  -109.185
76.6083     78.831  -116.102
77.7226     79.152  -123.009
78.8531     79.468  -129.928
80.0000     79.776  -136.871
81.1636     80.074  -143.833
82.3442     80.361  -150.793
83.5419     80.639  -157.732
84.7570     80.912  -164.638
85.9899     81.185  -171.527
87.2406     81.469  -178.646
88.5096     81.815   172.683
89.7970     82.041   166.919
91.1031     82.282   160.663
92.4282     82.551   153.533
93.7726     82.817   146.331
95.1366     83.076   139.044
96.5204     83.325   131.666
97.9243     83.560   124.208
99.3486     83.778   116.698
100.794     83.980   109.176
102.260     84.168   101.667
103.747     84.349    94.172
105.256     84.525    86.670
106.787     84.695    79.148
108.340     84.857    71.611
109.916     85.012    64.080
111.515     85.163    56.574
113.137     85.352    47.459
114.783     85.516    39.973
116.452     85.651    34.112
118.146     85.832    26.446
119.865     86.017    18.624
121.608     86.198    10.629
123.377     86.365     2.463
125.171     86.513    -5.826
126.992     86.638   -14.193
128.839     86.743   -22.590
130.713     86.833   -30.998
132.615     86.912   -39.412
134.543     86.983   -47.843
136.500     87.046   -56.300
138.486     87.109   -66.303
140.500     87.154   -74.804
142.544     87.185   -81.764
144.617     87.216   -90.330
146.721     87.241   -98.893
148.855     87.266  -107.459
151.020     87.295  -116.063
153.217     87.326  -124.736
155.445     87.358  -133.501
157.706     87.388  -142.396
160.000     87.406  -151.429
162.327     87.400  -161.419
164.688     87.376  -171.035
167.084     87.344  -179.960
169.514     87.310   172.169
171.980     87.269   163.060
174.481     87.231   153.913
177.019     87.189   144.682
179.594     87.136   135.406
182.206     87.076   126.115
184.856     87.008   116.807
187.545     86.924   106.323
190.273     86.855    97.104
193.041     86.797    88.582
195.849     86.742    79.874
198.697     86.692    70.611
201.587     86.653    61.319
204.520     86.626    52.005
207.494     86.616    42.649
210.512     86.626    33.216
213.574     86.662    22.529
216.681     86.709    12.826
219.833     86.769     4.149
223.030     86.854    -5.908
226.274     86.953   -16.192
229.565     87.068   -26.757
232.905     87.186   -37.675
236.292     87.291   -48.915
239.729     87.383   -61.660
243.216     87.437   -73.424
246.754     87.460   -84.072
250.343     87.466   -96.094
253.984     87.452  -108.225
257.678     87.412  -120.439
261.426     87.349  -132.639
265.229     87.272  -145.903
269.087     87.206  -157.859
273.001     87.150  -169.534
276.972     87.114   179.270
281.000     87.095   167.014
285.088     87.095   153.683
289.234     87.121   140.332
293.441     87.152   127.969
297.709     87.175   115.547
302.040     87.188   102.014
306.433     87.206    88.564
310.890     87.234    74.930
315.412     87.274    60.539
320.000     87.316    45.965
324.655     87.332    32.195
329.377     87.354    18.680
334.168     87.389     3.887
339.028     87.399   -13.164
343.959     87.373   -29.426
348.962     87.306   -43.280
354.038     87.214   -57.536
359.188     87.147   -72.704
364.412     87.138   -89.774
369.713     87.175  -106.169
375.090     87.222  -120.613
380.546     87.270  -137.142
386.081     87.313  -154.271
391.697     87.335  -172.037
397.394     87.337   170.083
403.175     87.308   152.697
409.039     87.238   134.464
414.989     87.132   115.385
421.025     86.982    96.115
427.149     86.804    78.440
433.362     86.613    61.126
439.665     86.420    42.394
446.060     86.274    23.555
452.548     86.209     6.003
459.131     86.197   -12.515
465.809     86.222   -32.497
472.584     86.240   -51.817
479.458     86.209   -71.334
486.432     86.122   -92.211
493.507     85.993  -113.132
500.686     85.860  -133.514
507.968     85.779  -153.287
515.357     85.772  -174.528
522.853     85.809   163.745
530.458     85.857   142.857
538.174     85.901   120.265
546.002     85.919    97.822
553.943     85.933    76.500
562.001     85.963    53.655
570.175     86.023    29.334
578.469     86.131     6.030
586.883     86.292   -17.927
595.419     86.488   -42.878
604.080     86.673   -67.388
612.866     86.820   -93.888
621.780     86.873  -122.551
630.824     86.792  -149.923
640.000     86.608  -177.713
649.309     86.398   155.326
658.753     86.216   130.075
668.335     86.119   101.869
678.056     86.142    74.430
687.919     86.239    46.625
697.925     86.360    17.418
708.077     86.413   -11.452
718.376     86.347   -42.670
728.825     86.167   -74.023
739.426     85.920  -104.367
750.181     85.690  -134.234
761.093     85.599  -163.802
772.163     85.674   166.048
783.394     85.873   134.715
794.789     86.110   100.863
806.349     86.282    67.666
818.078     86.339    32.972
829.977     86.340    -2.505
842.050     86.340   -37.716
854.298     86.297   -73.211
866.724     86.226  -108.251
879.330     86.149  -145.344
892.120     86.100   177.869
905.097     86.095   140.979
918.262     86.111   102.399
931.618     86.036    62.195
945.169     85.750    22.196
958.917     85.352   -16.613
972.864     85.037   -54.449
987.015     84.951   -93.136
1001.37     85.107  -133.151
1015.94     85.277  -175.391
1030.71     85.233   142.109
1045.71     85.011    99.231
1060.92     84.869    56.819
1076.35     84.937    15.003
1092.00     85.127   -28.410
1107.89     85.296   -73.378
1124.00     85.324  -119.892
1140.35     85.299  -167.086
1156.94     85.328   145.346
1173.77     85.349    97.157
1190.84     85.333    49.005
1208.16     85.337     0.515
1225.73     85.376   -49.215
1243.56     85.502  -100.607
1261.65     85.557  -153.690
1280.00     85.429   153.706
1298.62     85.278   101.658
1317.51     85.213    49.211
1336.67     85.276    -4.673
1356.11     85.450   -59.595
1375.84     85.537  -116.778
1395.85     85.445  -174.675
1416.15     85.399   128.728
1436.75     85.488    71.335
1457.65     85.677    11.662
1478.85     85.711   -49.954
1500.36     85.595  -111.929
1522.19     85.521  -174.284
1544.33     85.500   123.972
1566.79     85.609    61.171
1589.58     85.743    -4.569
1612.70     85.819   -70.518
1636.16     85.871  -137.415
1659.95     85.968   154.815
1684.10     86.119    85.214
1708.60     86.080    14.021
1733.45     85.981   -56.041
1758.66     85.992  -128.082
1784.24     85.952   158.429
1810.19     85.915    84.398
1836.52     85.927     8.877
1863.24     85.823   -67.914
1890.34     85.712  -144.830
1917.83     85.681   136.832
1945.73     85.540    57.481
1974.03     85.452   -22.055
2002.74     85.453  -104.197
2031.87     85.381   172.730
2061.43     85.355    90.033
2091.41     85.361     5.056
2121.83     85.403   -82.057
2152.69     85.445  -169.720
2184.01     85.509   102.087
2215.77     85.662    10.901
2248.00     85.535   -82.073
2280.70     85.526  -174.471
2313.87     85.572    88.848
2347.53     85.143    -7.695
2381.68     85.058  -103.418
2416.32     84.904   157.594
2451.46     84.512    59.046
2487.12     84.542   -41.443
2523.30     84.456  -144.202
2560.00     84.366   112.854
2597.24     84.416     8.540
2635.01     84.403   -98.649
2673.34     84.316   152.359
2712.23     84.300    42.734
2751.68     84.292   -70.011
2791.70     84.153   175.743
2832.31     84.118    60.297
2873.50     83.951   -57.007
2915.30     83.652  -175.229
2957.70     83.379    64.528
3000.72     82.972   -56.254
3044.37     82.665  -176.779
3088.65     82.522    59.667
3133.58     82.409   -64.860
3179.16     82.526   167.746
3225.40     82.554    39.005
3272.31     82.686   -91.480
3319.91     82.873   134.885
3368.20     83.008    -0.566
3417.19     83.204  -139.050
3466.89     83.195    81.765
3517.32     83.248   -60.027
3568.48     83.306   157.071
3620.39     83.547    12.980
3673.05     83.961  -134.478
3726.47     84.397    74.635
3780.67     84.787   -79.439
3835.67     85.085   124.213
3891.46     85.234   -34.726
3948.06     85.303   163.725
4005.49     85.334     0.702
4063.75     85.287  -164.217
4122.86     85.338    30.013
4182.82     85.511  -138.441
4243.66     85.891    49.253
4305.39     86.344  -125.266
4368.01     86.737    55.689
4431.55     86.940  -127.294
4496.01     86.970    47.633
4561.40     86.817  -138.626
4627.75     86.613    32.836
4695.06     86.500  -157.909
4763.35     86.463     9.674
4832.64     86.546   173.492
4902.93     86.589   -26.509
4974.24     86.476   130.011
5046.60     86.219   -76.087
5120.00     85.907    76.196
5194.47     85.733  -132.555
5270.03     85.734    15.529
5346.68     85.835   160.192
5424.45     85.984   -59.308
5503.35     86.024    76.234
5583.40     85.917  -150.884
5664.61     85.798   -20.382
5747.01     85.719   107.439
5830.60     85.748  -127.530
5915.41     85.924    -7.319
6001.45     86.003   108.405
6088.74     85.903  -138.760
6177.30     85.729   -29.556
6267.15     85.491    77.423
6358.31     85.423  -178.661
6450.80     85.530   -79.990
6544.62     85.529    14.852
6639.82     85.406   105.453
6736.40     85.141  -167.638
6834.38     84.874   -82.069
6933.79     84.851    -0.340
7034.64     84.852    75.485
7136.96     84.838   148.358
7240.77     84.830  -142.714
7346.09     84.902   -78.251
7452.94     85.162   -18.155
7561.35     85.523    36.675
7671.33     85.818    86.080
7782.91     85.978   130.523
7896.12     86.182   170.771
8010.97     86.361  -153.373
8127.49     86.578  -124.058
8245.71     86.691  -100.044
8365.65     86.650   -79.701
8487.33     86.594   -65.649
8610.78     86.403   -55.869
8736.03     86.096   -50.875
8863.09     85.637   -50.598
8992.01     85.093   -53.873
9122.80     84.540   -61.079
9255.50     84.123   -71.651
9390.12     83.982   -87.640
9526.70     84.047  -109.047
9665.27     84.333  -136.037
9805.86     84.730  -170.708
9948.49     85.108   147.720
10093.2     85.502   100.380
10240.0     85.934    46.025
10388.9     86.288   -15.358
10540.1     86.603   -82.632
10693.4     86.760  -156.991
10848.9     86.658   121.573
11006.7     86.455    35.100
11166.8     86.200   -56.976
11329.2     85.959  -154.952
11494.0     85.868   101.483
11661.2     85.921    -8.555
11830.8     86.045  -127.401
12002.9     86.181   106.645
12177.5     86.232   -26.113
12354.6     86.202  -167.641
12534.3     85.951    43.694
12716.6     85.587  -111.308
12901.6     85.187    87.459
13089.2     84.769   -79.594
13279.6     84.565   106.120
13472.8     84.555   -76.260
13668.8     84.726    93.644
13867.6     85.040  -105.917
14069.3     85.347    44.914
14273.9     85.539  -172.546
14481.5     85.603   -39.553
14692.2     85.573    84.042
14905.9     85.462  -159.560
15122.7     85.267   -52.291
15342.7     85.021    45.622
15565.8     84.627   135.556
15792.2     84.122  -142.840
16021.9     83.619   -69.052
16255.0     83.270    -4.359
16491.4     83.150    51.292
16731.3     83.237    97.210
16974.7     83.485   131.291
17221.6     83.697   154.567
17472.1     83.801   166.079
17726.2     83.663   166.169
17984.0     83.116   155.996
18245.6     82.275   137.647
18511.0     81.388   112.208
18780.2     80.862    77.229
19053.4     80.941    32.108
19330.5     81.430   -25.720
19611.7     82.082   -99.513
19897.0     82.502   171.985
20186.4     82.533    70.585
20480.0     82.233   -43.993
20777.9     81.472  -171.095
21080.1     80.231    52.351
21386.7     78.894   -92.228
21697.8     78.046   112.291
22013.4     77.865   -56.372
22333.6     78.121   116.938
22658.4     77.884   -91.023
22988.0     76.229    44.604
23322.4     73.258   170.213
23661.6     69.688   -70.695
24005.8     66.493    39.902
24355.0     63.645   136.128
24709.2     61.036  -144.877
25068.6     59.126   -90.212
25433.2     57.708   -59.713
25803.2     56.877   -43.042
26178.5     58.040   -36.448
26559.3     60.399   -43.423
26945.6     63.023   -59.489
27337.5     66.086   -90.035
27735.2     68.244  -141.395
28138.6     69.525   155.293
28547.9     70.636    77.419
28963.1     71.579   -17.568
29384.4     72.382  -129.876
29811.8     72.886   101.103
30245.4     73.201   -43.496
30685.3     73.661   154.290
31131.7     74.186   -26.087
31584.5     74.766   135.320
32043.9     75.308   -83.718
32510.0     75.569    36.140
32982.8     75.501   137.136
33462.6     75.173  -141.007
33949.3     74.632   -79.594
34443.1     73.697   -37.018
34944.1     72.489   -10.313
35452.4     71.614    -0.659
35968.0     71.189   -11.197
36491.2     71.080   -42.900
37022.0     71.231   -98.187
37560.5     71.258  -178.008
38106.8     71.239    81.095
38661.1     71.531   -41.785
39223.4     72.053   169.483
39793.9     72.544    -3.946
