"CEA2034"													
"On Axis"		"Listening Window"		"Early Reflections"		"Sound Power"		"Sound Power DI"		"Early Reflections DI"		"DI offset"	
"Frequency [Hz]"	"Sound Pessure Level [dB]   [2.83  V @ 1. m]"	"Frequency [Hz]"	"Sound Pessure Level [dB]   [2.83  V @ 1. m]"	"Frequency [Hz]"	"Sound Pessure Level [dB]   [2.83  V @ 1. m]"	"Frequency [Hz]"	"Sound Pessure Level [dB]   [2.83  V @ 1. m]"	"Frequency [Hz]"	"Sound Pessure Level [dB]   [2.83  V @ 1. m]"	"Frequency [Hz]"	"Sound Pessure Level [dB]   [2.83  V @ 1. m]"	"Frequency [Hz]"	"Sound Pessure Level [dB]   [2.83  V @ 1. m]"
20.5078	70.325	20.5078	70.3035	20.5078	70.0553	20.5078	69.883	20.5078	50.4205	20.5078	50.2482	20.5078	50
21.9727	71.9517	21.9727	71.9213	21.9727	71.5875	21.9727	71.3329	21.9727	50.5884	21.9727	50.3338	21.9727	50
23.4375	72.7662	23.4375	72.733	23.4375	72.3651	23.4375	72.086	23.4375	50.6469	23.4375	50.3679	23.4375	50
24.9023	73.7756	24.9023	73.7409	24.9023	73.3578	24.9023	73.0665	24.9023	50.6743	24.9023	50.3831	24.9023	50
26.3672	74.7768	26.3672	74.7445	26.3672	74.3862	26.3672	74.1084	26.3672	50.636	26.3672	50.3582	26.3672	50
27.832	75.8419	27.832	75.8052	27.832	75.4007	27.832	75.0661	27.832	50.7391	27.832	50.4044	27.832	50
29.2969	76.3789	29.2969	76.345	29.2969	75.9755	29.2969	75.6848	29.2969	50.6602	29.2969	50.3695	29.2969	50
30.7617	77.0773	30.7617	77.0431	30.7617	76.6728	30.7617	76.3859	30.7617	50.6572	30.7617	50.3703	30.7617	50
32.2266	77.7512	32.2266	77.7178	32.2266	77.3587	32.2266	77.0817	32.2266	50.6361	32.2266	50.3591	32.2266	50
33.6914	78.3679	33.6914	78.3339	33.6914	77.9823	33.6914	77.7184	33.6914	50.6155	33.6914	50.3515	33.6914	50
35.1562	78.9681	35.1562	78.9312	35.1562	78.5528	35.1562	78.2611	35.1562	50.6701	35.1562	50.3783	35.1562	50
36.6211	79.6736	36.6211	79.634	36.6211	79.2308	36.6211	78.9104	36.6211	50.7236	36.6211	50.4032	36.6211	50
38.0859	80.1312	38.0859	80.0899	38.0859	79.6726	38.0859	79.3349	38.0859	50.755	38.0859	50.4173	38.0859	50
39.5508	80.8216	39.5508	80.7805	39.5508	80.3656	39.5508	80.0317	39.5508	50.7487	39.5508	50.4148	39.5508	50
41.0156	81.4124	41.0156	81.3692	41.0156	80.9341	41.0156	80.5821	41.0156	50.7871	41.0156	50.4351	41.0156	50
42.4805	81.745	42.4805	81.702	42.4805	81.2604	42.4805	80.9001	42.4805	50.802	42.4805	50.4417	42.4805	50
43.9453	81.9181	43.9453	81.8749	43.9453	81.4386	43.9453	81.0864	43.9453	50.7885	43.9453	50.4363	43.9453	50
45.4102	81.9708	45.4102	81.9305	45.4102	81.5282	45.4102	81.2154	45.4102	50.7151	45.4102	50.4023	45.4102	50
46.875	82.3087	46.875	82.2699	46.875	81.8905	46.875	81.6018	46.875	50.6681	46.875	50.3794	46.875	50
48.3398	82.6648	48.3398	82.624	48.3398	82.237	48.3398	81.9437	48.3398	50.6802	48.3398	50.387	48.3398	50
51.2695	83.3228	51.2695	83.2729	51.2695	82.8008	51.2695	82.4113	51.2695	50.8616	51.2695	50.4721	51.2695	50
52.7344	83.6052	52.7344	83.5517	52.7344	83.0286	52.7344	82.5763	52.7344	50.9754	52.7344	50.5231	52.7344	50
54.1992	83.8074	54.1992	83.7575	54.1992	83.2671	54.1992	82.8518	54.1992	50.9057	54.1992	50.4904	54.1992	50
55.6641	83.7696	55.6641	83.7266	55.6641	83.3195	55.6641	82.9997	55.6641	50.7269	55.6641	50.4071	55.6641	50
58.5938	84.055	58.5938	84.0085	58.5938	83.5883	58.5938	83.2547	58.5938	50.7537	58.5938	50.4202	58.5938	50
60.0586	84.1611	60.0586	84.1152	60.0586	83.6988	60.0586	83.3728	60.0586	50.7424	60.0586	50.4164	60.0586	50
62.9883	84.3516	62.9883	84.3026	62.9883	83.8709	62.9883	83.532	62.9883	50.7706	62.9883	50.4317	62.9883	50
64.4531	84.3586	64.4531	84.3101	64.4531	83.8923	64.4531	83.5729	64.4531	50.7373	64.4531	50.4179	64.4531	50
67.3828	84.3483	67.3828	84.2983	67.3828	83.8869	67.3828	83.5821	67.3828	50.7162	67.3828	50.4114	67.3828	50
68.8477	84.3512	68.8477	84.2987	68.8477	83.8711	68.8477	83.5511	68.8477	50.7476	68.8477	50.4276	68.8477	50
71.7773	84.5254	71.7773	84.4708	71.7773	84.0373	71.7773	83.7171	71.7773	50.7537	71.7773	50.4335	71.7773	50
74.707	84.6613	74.707	84.6035	74.707	84.1511	74.707	83.8037	74.707	50.7998	74.707	50.4524	74.707	50
77.6367	84.7521	77.6367	84.6885	77.6367	84.1928	77.6367	83.8019	77.6367	50.8866	77.6367	50.4956	77.6367	50
79.1016	84.7287	79.1016	84.6638	79.1016	84.1508	79.1016	83.7439	79.1016	50.92	79.1016	50.5131	79.1016	50
82.0312	84.7198	82.0312	84.6549	82.0312	84.1392	82.0312	83.7349	82.0312	50.92	82.0312	50.5157	82.0312	50
84.9609	84.6851	84.9609	84.6192	84.9609	84.1101	84.9609	83.7131	84.9609	50.906	84.9609	50.5091	84.9609	50
87.8906	84.4491	87.8906	84.3811	87.8906	83.9264	87.8906	83.6019	87.8906	50.7792	87.8906	50.4546	87.8906	50
90.8203	84.9043	90.8203	84.8216	90.8203	84.196	90.8203	83.6615	90.8203	51.1601	90.8203	50.6256	90.8203	50
95.2148	84.2564	95.2148	84.1824	95.2148	83.6741	95.2148	83.2985	95.2148	50.8839	95.2148	50.5084	95.2148	50
98.1445	84.3636	98.1445	84.2825	98.1445	83.7112	98.1445	83.2665	98.1445	51.016	98.1445	50.5713	98.1445	50
101.074	84.1363	101.074	84.0567	101.074	83.511	101.074	83.0943	101.074	50.9624	101.074	50.5457	101.074	50
105.469	84.6062	105.469	84.5043	105.469	83.8301	105.469	83.2617	105.469	51.2426	105.469	50.6742	105.469	50
108.398	84.9751	108.398	84.8654	108.398	84.0813	108.398	83.3789	108.398	51.4865	108.398	50.7841	108.398	50
112.793	85.0864	112.793	84.983	112.793	84.1865	112.793	83.4553	112.793	51.5277	112.793	50.7965	112.793	50
117.188	84.8786	117.188	84.7823	117.188	84.0494	117.188	83.3803	117.188	51.402	117.188	50.7329	117.188	50
120.117	84.6425	120.117	84.5578	120.117	83.892	120.117	83.3306	120.117	51.2272	120.117	50.6658	120.117	50
124.512	84.1495	124.512	84.0347	124.512	83.4201	124.512	83.0156	124.512	51.0191	124.512	50.6146	124.512	50
128.906	84.6602	128.906	84.5363	128.906	83.7565	128.906	83.1021	128.906	51.4342	128.906	50.7798	128.906	50
133.301	84.7674	133.301	84.6471	133.301	83.854	133.301	83.1764	133.301	51.4707	133.301	50.7931	133.301	50
139.16	84.7559	139.16	84.634	139.16	83.8604	139.16	83.2212	139.16	51.4128	139.16	50.7736	139.16	50
143.555	84.4287	143.555	84.3041	143.555	83.6112	143.555	83.108	143.555	51.1961	143.555	50.693	143.555	50
147.949	83.9299	147.949	83.7837	147.949	83.1692	147.949	82.7968	147.949	50.9869	147.949	50.6146	147.949	50
153.809	83.9348	153.809	83.7037	153.809	82.7569	153.809	82.1047	153.809	51.5991	153.809	50.9468	153.809	50
159.668	84.6211	159.668	84.4118	159.668	83.2225	159.668	82.1488	159.668	52.2631	159.668	51.1894	159.668	50
165.527	84.9979	165.527	84.7959	165.527	83.5508	165.527	82.3459	165.527	52.45	165.527	51.2451	165.527	50
171.387	85.1836	171.387	84.9819	171.387	83.6838	171.387	82.3636	171.387	52.6183	171.387	51.2981	171.387	50
177.246	85.0953	177.246	84.9047	177.246	83.5941	177.246	82.2351	177.246	52.6696	177.246	51.3106	177.246	50
183.105	84.8979	183.105	84.6993	183.105	83.3767	183.105	82.0329	183.105	52.6664	183.105	51.3226	183.105	50
188.965	85.1314	188.965	84.9306	188.965	83.4927	188.965	81.9394	188.965	52.9912	188.965	51.4379	188.965	50
196.289	85.8575	196.289	85.6694	196.289	84.1243	196.289	82.3824	196.289	53.287	196.289	51.5451	196.289	50
203.613	86.1738	203.613	85.9925	203.613	84.4273	203.613	82.6156	203.613	53.3769	203.613	51.5652	203.613	50
210.938	86.4095	210.938	86.2547	210.938	84.6491	210.938	82.6391	210.938	53.6156	210.938	51.6056	210.938	50
218.262	85.4335	218.262	85.3295	218.262	84.048	218.262	82.4723	218.262	52.8572	218.262	51.2816	218.262	50
225.586	85.7026	225.586	85.5219	225.586	84.0844	225.586	82.5946	225.586	52.9273	225.586	51.4375	225.586	50
232.91	86.6385	232.91	86.4354	232.91	84.7736	232.91	82.9078	232.91	53.5276	232.91	51.6618	232.91	50
241.699	86.5273	241.699	86.365	241.699	84.7541	241.699	82.8043	241.699	53.5607	241.699	51.6109	241.699	50
250.488	86.3761	250.488	86.205	250.488	84.7148	250.488	82.9389	250.488	53.2661	250.488	51.4902	250.488	50
259.277	87.1634	259.277	86.9489	259.277	85.2885	259.277	83.2703	259.277	53.6786	259.277	51.6603	259.277	50
268.066	86.7799	268.066	86.5953	268.066	85.0058	268.066	83.0865	268.066	53.5088	268.066	51.5895	268.066	50
276.855	86.3202	276.855	86.1522	276.855	84.6135	276.855	82.874	276.855	53.2782	276.855	51.5386	276.855	50
287.109	86.2811	287.109	86.0923	287.109	84.4709	287.109	82.713	287.109	53.3793	287.109	51.6214	287.109	50
297.363	86.6308	297.363	86.3991	297.363	84.7008	297.363	82.8501	297.363	53.549	297.363	51.6983	297.363	50
307.617	87.5953	307.617	87.3793	307.617	85.4391	307.617	83.1469	307.617	54.2324	307.617	51.9402	307.617	50
319.336	87.1437	319.336	86.9153	319.336	85.0713	319.336	82.9454	319.336	53.9698	319.336	51.844	319.336	50
329.59	87.9537	329.59	87.753	329.59	85.7786	329.59	83.3904	329.59	54.3626	329.59	51.9743	329.59	50
341.309	86.913	341.309	86.7285	341.309	84.966	341.309	82.959	341.309	53.7695	341.309	51.7625	341.309	50
353.027	86.7958	353.027	86.5615	353.027	84.6874	353.027	82.5426	353.027	54.0189	353.027	51.8741	353.027	50
366.211	86.6262	366.211	86.3988	366.211	84.5976	366.211	82.6223	366.211	53.7765	366.211	51.8011	366.211	50
379.395	87.8373	379.395	87.5064	379.395	85.2856	379.395	82.7631	379.395	54.7433	379.395	52.2208	379.395	50
392.578	87.6665	392.578	87.4644	392.578	85.4213	392.578	83.1443	392.578	54.3201	392.578	52.0431	392.578	50
405.762	87.3614	405.762	87.088	405.762	85.1357	405.762	82.9301	405.762	54.1579	405.762	51.9523	405.762	50
420.41	87.5415	420.41	87.1587	420.41	84.9308	420.41	82.394	420.41	54.7647	420.41	52.2279	420.41	50
435.059	87.2624	435.059	86.9217	435.059	84.681	435.059	82.322	435.059	54.5997	435.059	52.2407	435.059	50
451.172	87.6647	451.172	87.316	451.172	85.0213	451.172	82.4979	451.172	54.8181	451.172	52.2947	451.172	50
465.82	87.0629	465.82	86.6148	465.82	84.605	465.82	82.1417	465.82	54.4732	465.82	52.0098	465.82	50
483.398	86.8101	483.398	86.3117	483.398	83.7215	483.398	80.9975	483.398	55.3142	483.398	52.5902	483.398	50
499.512	85.4214	499.512	84.9378	499.512	82.3597	499.512	79.8243	499.512	55.1135	499.512	52.5781	499.512	50
517.09	85.651	517.09	85.0769	517.09	82.8089	517.09	80.2374	517.09	54.8394	517.09	52.268	517.09	50
536.133	88.2447	536.133	87.6953	536.133	84.9289	536.133	81.9078	536.133	55.7876	536.133	52.7665	536.133	50
555.176	88.7631	555.176	88.258	555.176	85.3504	555.176	82.1435	555.176	56.1146	555.176	52.9076	555.176	50
574.219	88.509	574.219	88.0145	574.219	85.1349	574.219	81.9902	574.219	56.0242	574.219	52.8795	574.219	50
594.727	88.0239	594.727	87.5143	594.727	84.7398	594.727	81.6378	594.727	55.8765	594.727	52.7745	594.727	50
615.234	88.5735	615.234	88.0255	615.234	85.1587	615.234	81.8828	615.234	56.1427	615.234	52.8668	615.234	50
637.207	88.2527	637.207	87.8191	637.207	84.7089	637.207	81.6718	637.207	56.1472	637.207	53.1101	637.207	50
659.18	88.091	659.18	87.5629	659.18	84.6494	659.18	81.4883	659.18	56.0746	659.18	52.9135	659.18	50
682.617	88.195	682.617	87.6332	682.617	84.8586	682.617	81.569	682.617	56.0642	682.617	52.7745	682.617	50
707.52	86.9591	707.52	86.4926	707.52	83.9383	707.52	80.7927	707.52	55.6999	707.52	52.5543	707.52	50
732.422	87.0331	732.422	86.4404	732.422	83.8437	732.422	80.7508	732.422	55.6896	732.422	52.5967	732.422	50
757.324	87.0331	757.324	86.4408	757.324	83.6595	757.324	80.3467	757.324	56.0941	757.324	52.7812	757.324	50
785.156	86.1989	785.156	85.588	785.156	83.3365	785.156	79.9924	785.156	55.5956	785.156	52.2515	785.156	50
811.523	86.3828	811.523	85.8442	811.523	83.3517	811.523	80.2229	811.523	55.6213	811.523	52.4925	811.523	50
840.82	86.6223	840.82	85.7597	840.82	83.6337	840.82	80.1261	840.82	55.6337	840.82	52.126	840.82	50
870.117	85.735	870.117	85.3007	870.117	83.1975	870.117	80.0321	870.117	55.2685	870.117	52.1032	870.117	50
900.879	85.1338	900.879	84.473	900.879	83.1818	900.879	79.7108	900.879	54.7622	900.879	51.2912	900.879	50
933.105	85.3939	933.105	84.7444	933.105	82.7096	933.105	79.2221	933.105	55.5223	933.105	52.0348	933.105	50
965.332	85.5964	965.332	84.877	965.332	82.4396	965.332	78.7939	965.332	56.0831	965.332	52.4374	965.332	50
1,000.49	85.2104	1,000.49	84.5077	1,000.49	81.7522	1,000.49	78.1084	1,000.49	56.3993	1,000.49	52.7555	1,000.49	50
1,035.64	85.8144	1,035.64	84.9785	1,035.64	82.1567	1,035.64	78.4642	1,035.64	56.5142	1,035.64	52.8218	1,035.64	50
1,072.27	85.5979	1,072.27	84.7925	1,072.27	82.1122	1,072.27	78.4096	1,072.27	56.3829	1,072.27	52.6802	1,072.27	50
1,108.89	85.8137	1,108.89	85.1656	1,108.89	82.201	1,108.89	78.5906	1,108.89	56.575	1,108.89	52.9646	1,108.89	50
1,148.44	86.6813	1,148.44	85.8685	1,148.44	82.5664	1,148.44	78.9813	1,148.44	56.8872	1,148.44	53.3021	1,148.44	50
1,189.45	87.8796	1,189.45	86.8308	1,189.45	83.0058	1,189.45	79.4485	1,189.45	57.3823	1,189.45	53.825	1,189.45	50
1,230.47	88.475	1,230.47	87.5215	1,230.47	83.5999	1,230.47	80.0092	1,230.47	57.5123	1,230.47	53.9216	1,230.47	50
1,274.41	89.0036	1,274.41	88.1189	1,274.41	84.1413	1,274.41	80.6957	1,274.41	57.4231	1,274.41	53.9776	1,274.41	50
1,319.82	89.1582	1,319.82	88.4383	1,319.82	84.3066	1,319.82	80.8479	1,319.82	57.5904	1,319.82	54.1316	1,319.82	50
1,366.7	89.1343	1,366.7	88.4239	1,366.7	84.3878	1,366.7	81.0667	1,366.7	57.3573	1,366.7	54.0361	1,366.7	50
1,413.57	88.2474	1,413.57	87.6517	1,413.57	83.7827	1,413.57	80.707	1,413.57	56.9448	1,413.57	53.8691	1,413.57	50
1,463.38	88.4563	1,463.38	87.6576	1,463.38	83.8351	1,463.38	80.7435	1,463.38	56.9141	1,463.38	53.8224	1,463.38	50
1,516.11	87.2221	1,516.11	86.6553	1,516.11	83.0759	1,516.11	79.9942	1,516.11	56.6611	1,516.11	53.5794	1,516.11	50
1,568.85	86.5626	1,568.85	85.6188	1,568.85	81.955	1,568.85	79.1006	1,568.85	56.5183	1,568.85	53.6638	1,568.85	50
1,624.51	85.3883	1,624.51	85.2155	1,624.51	81.4561	1,624.51	78.7143	1,624.51	56.5012	1,624.51	53.7594	1,624.51	50
1,681.64	85.6995	1,681.64	85.4571	1,681.64	81.6019	1,681.64	78.807	1,681.64	56.65	1,681.64	53.8552	1,681.64	50
1,741.7	85.8739	1,741.7	85.7454	1,741.7	81.8751	1,741.7	79.188	1,741.7	56.5575	1,741.7	53.8703	1,741.7	50
1,803.22	85.2172	1,803.22	85.5661	1,803.22	81.9355	1,803.22	79.2013	1,803.22	56.3648	1,803.22	53.6306	1,803.22	50
1,866.21	84.8636	1,866.21	85.1667	1,866.21	81.8919	1,866.21	79.051	1,866.21	56.1157	1,866.21	53.2748	1,866.21	50
1,932.13	84.6609	1,932.13	84.8113	1,932.13	81.7505	1,932.13	78.8367	1,932.13	55.9746	1,932.13	53.0608	1,932.13	50
1,999.51	85.3137	1,999.51	84.9745	1,999.51	82.2523	1,999.51	79.0376	1,999.51	55.9369	1,999.51	52.7223	1,999.51	50
2,069.82	86.4105	2,069.82	86.0876	2,069.82	83.006	2,069.82	79.5448	2,069.82	56.5428	2,069.82	53.0817	2,069.82	50
2,143.07	87.2911	2,143.07	86.8001	2,143.07	83.5581	2,143.07	80.1117	2,143.07	56.6884	2,143.07	53.242	2,143.07	50
2,219.24	87.1468	2,219.24	86.6927	2,219.24	83.5856	2,219.24	80.2133	2,219.24	56.4794	2,219.24	53.1072	2,219.24	50
2,296.88	86.1931	2,296.88	85.6507	2,296.88	83.0715	2,296.88	79.7844	2,296.88	55.8662	2,296.88	52.5791	2,296.88	50
2,378.91	86.0687	2,378.91	85.5366	2,378.91	83.4173	2,378.91	79.8894	2,378.91	55.6472	2,378.91	52.1193	2,378.91	50
2,462.4	88.0721	2,462.4	86.9927	2,462.4	84.4079	2,462.4	80.8249	2,462.4	56.1678	2,462.4	52.5848	2,462.4	50
2,548.83	89.1661	2,548.83	88.1277	2,548.83	85.0847	2,548.83	81.638	2,548.83	56.4897	2,548.83	53.0431	2,548.83	50
2,639.65	87.8802	2,639.65	87.5518	2,639.65	84.6491	2,639.65	81.4951	2,639.65	56.0567	2,639.65	52.9027	2,639.65	50
2,731.93	86.1991	2,731.93	86.1254	2,731.93	83.9951	2,731.93	81.0711	2,731.93	55.0544	2,731.93	52.1303	2,731.93	50
2,828.61	84.6486	2,828.61	85.4528	2,828.61	83.5272	2,828.61	81.1996	2,828.61	54.2532	2,828.61	51.9256	2,828.61	50
2,928.22	83.1767	2,928.22	85.4928	2,928.22	83.6706	2,928.22	81.6263	2,928.22	53.8665	2,928.22	51.8222	2,928.22	50
3,030.76	84.3636	3,030.76	85.7991	3,030.76	83.7412	3,030.76	81.6803	3,030.76	54.1188	3,030.76	52.0579	3,030.76	50
3,137.7	85.0889	3,137.7	85.8901	3,137.7	83.5753	3,137.7	81.233	3,137.7	54.6571	3,137.7	52.3148	3,137.7	50
3,249.02	83.0485	3,249.02	85.1629	3,249.02	83.0658	3,249.02	80.7593	3,249.02	54.4036	3,249.02	52.0971	3,249.02	50
3,363.28	82.535	3,363.28	85.2479	3,363.28	83.2641	3,363.28	80.8171	3,363.28	54.4308	3,363.28	51.9838	3,363.28	50
3,481.93	82.6514	3,481.93	85.8621	3,481.93	83.7823	3,481.93	81.2986	3,481.93	54.5635	3,481.93	52.0798	3,481.93	50
3,604.98	83.8799	3,604.98	86.0959	3,604.98	84.4016	3,604.98	81.7242	3,604.98	54.3717	3,604.98	51.6943	3,604.98	50
3,732.42	85.722	3,732.42	86.8233	3,732.42	84.8192	3,732.42	82.0569	3,732.42	54.7664	3,732.42	52.0041	3,732.42	50
3,864.26	86.1893	3,864.26	87.3138	3,864.26	85.0673	3,864.26	81.8525	3,864.26	55.4614	3,864.26	52.2465	3,864.26	50
4,000.49	86.2952	4,000.49	86.8987	4,000.49	84.9364	4,000.49	81.4731	4,000.49	55.4256	4,000.49	51.9623	4,000.49	50
4,141.11	86.5911	4,141.11	87.2078	4,141.11	85.0031	4,141.11	81.5528	4,141.11	55.655	4,141.11	52.2047	4,141.11	50
4,287.6	86.577	4,287.6	87.2834	4,287.6	85.4565	4,287.6	81.8162	4,287.6	55.4672	4,287.6	51.8269	4,287.6	50
4,438.48	85.9451	4,438.48	87.0451	4,438.48	85.3706	4,438.48	81.8294	4,438.48	55.2157	4,438.48	51.6745	4,438.48	50
4,595.21	85.7119	4,595.21	86.554	4,595.21	85.0997	4,595.21	81.6368	4,595.21	54.9172	4,595.21	51.4543	4,595.21	50
4,756.35	86.2576	4,756.35	86.6821	4,756.35	84.9402	4,756.35	81.6179	4,756.35	55.0642	4,756.35	51.7418	4,756.35	50
4,924.8	86.9196	4,924.8	87.1613	4,924.8	84.763	4,924.8	81.5153	4,924.8	55.6459	4,924.8	52.3982	4,924.8	50
5,097.66	86.3317	5,097.66	86.5438	5,097.66	84.4666	5,097.66	81.3562	5,097.66	55.1876	5,097.66	52.0772	5,097.66	50
5,277.83	86.8411	5,277.83	86.3092	5,277.83	83.7602	5,277.83	81.0307	5,277.83	55.2785	5,277.83	52.549	5,277.83	50
5,463.87	87.2204	5,463.87	86.3783	5,463.87	83.8485	5,463.87	81.1951	5,463.87	55.1832	5,463.87	52.5297	5,463.87	50
5,657.23	87.0417	5,657.23	86.0985	5,657.23	83.6262	5,657.23	80.7602	5,657.23	55.3384	5,657.23	52.4723	5,657.23	50
5,856.45	86.1247	5,856.45	85.7848	5,856.45	83.8504	5,856.45	80.7449	5,856.45	55.0399	5,856.45	51.9344	5,856.45	50
6,062.99	85.9635	6,062.99	85.7674	6,062.99	83.8915	6,062.99	80.6789	6,062.99	55.0885	6,062.99	51.876	6,062.99	50
6,276.86	85.0528	6,276.86	85.7068	6,276.86	83.7007	6,276.86	80.5378	6,276.86	55.169	6,276.86	52.0061	6,276.86	50
6,498.05	85.0158	6,498.05	85.5093	6,498.05	83.3065	6,498.05	80.1647	6,498.05	55.3446	6,498.05	52.2027	6,498.05	50
6,726.56	85.6417	6,726.56	85.8568	6,726.56	83.7669	6,726.56	80.5216	6,726.56	55.3352	6,726.56	52.0899	6,726.56	50
6,963.87	84.5827	6,963.87	85.3349	6,963.87	83.4403	6,963.87	80.1694	6,963.87	55.1655	6,963.87	51.8946	6,963.87	50
7,209.96	84.9286	7,209.96	85.8575	7,209.96	83.658	7,209.96	80.0718	7,209.96	55.7857	7,209.96	52.1995	7,209.96	50
7,464.84	85.4799	7,464.84	86.1121	7,464.84	83.4832	7,464.84	79.9594	7,464.84	56.1527	7,464.84	52.6289	7,464.84	50
7,727.05	85.688	7,727.05	85.9497	7,727.05	83.431	7,727.05	79.8577	7,727.05	56.092	7,727.05	52.5188	7,727.05	50
7,999.51	86.3433	7,999.51	86.3762	7,999.51	83.4332	7,999.51	79.7005	7,999.51	56.6757	7,999.51	52.943	7,999.51	50
8,282.23	86.2753	8,282.23	86.1828	8,282.23	83.2849	8,282.23	79.2914	8,282.23	56.8915	8,282.23	52.898	8,282.23	50
8,573.73	86.5294	8,573.73	86.5565	8,573.73	83.2935	8,573.73	79.4308	8,573.73	57.1257	8,573.73	53.263	8,573.73	50
8,876.95	86.6565	8,876.95	86.5096	8,876.95	83.1839	8,876.95	79.2292	8,876.95	57.2804	8,876.95	53.3257	8,876.95	50
9,188.96	86.9975	9,188.96	86.5295	9,188.96	83.1967	9,188.96	79.0577	9,188.96	57.4718	9,188.96	53.3328	9,188.96	50
9,514.16	86.6475	9,514.16	86.0985	9,514.16	82.9328	9,514.16	78.6404	9,514.16	57.458	9,514.16	53.1657	9,514.16	50
9,849.61	87.2453	9,849.61	86.2535	9,849.61	82.8802	9,849.61	78.5209	9,849.61	57.7326	9,849.61	53.3732	9,849.61	50
10,196.8	87.7286	10,196.8	86.3899	10,196.8	82.9915	10,196.8	78.5826	10,196.8	57.8074	10,196.8	53.3984	10,196.8	50
10,555.7	87.8432	10,555.7	86.4891	10,555.7	82.9837	10,555.7	78.458	10,555.7	58.0311	10,555.7	53.5054	10,555.7	50
10,927.7	87.9364	10,927.7	86.6527	10,927.7	83.0267	10,927.7	78.4411	10,927.7	58.2116	10,927.7	53.626	10,927.7	50
11,313	87.9406	11,313	86.9179	11,313	83.3726	11,313	78.7849	11,313	58.133	11,313	53.5454	11,313	50
11,712.9	88.4712	11,712.9	87.1786	11,712.9	83.8537	11,712.9	79.2059	11,712.9	57.9726	11,712.9	53.3248	11,712.9	50
12,126	89.7765	12,126	87.7113	12,126	83.9489	12,126	78.798	12,126	58.9133	12,126	53.7624	12,126	50
12,553.7	90.3042	12,553.7	88.3592	12,553.7	84.2328	12,553.7	78.9068	12,553.7	59.4524	12,553.7	54.1264	12,553.7	50
12,996.1	90.7348	12,996.1	88.5463	12,996.1	84.7343	12,996.1	79.1211	12,996.1	59.4252	12,996.1	53.812	12,996.1	50
13,454.6	90.3804	13,454.6	88.0073	13,454.6	83.8214	13,454.6	77.8236	13,454.6	60.1836	13,454.6	54.1858	13,454.6	50
13,929.2	89.9743	13,929.2	87.8005	13,929.2	83.0844	13,929.2	77.6468	13,929.2	60.1537	13,929.2	54.7161	13,929.2	50
14,419.9	88.5329	14,419.9	85.6143	14,419.9	80.3766	14,419.9	75.0943	14,419.9	60.52	14,419.9	55.2378	14,419.9	50
14,928.2	85.1507	14,928.2	81.7325	14,928.2	77.2104	14,928.2	71.9173	14,928.2	59.8152	14,928.2	54.5222	14,928.2	50
15,455.6	77.6792	15,455.6	73.6484	15,455.6	70.1946	15,455.6	66.149	15,455.6	57.4994	15,455.6	53.4538	15,455.6	50
16,000.5	79.404	16,000.5	76.3146	16,000.5	70.8228	16,000.5	65.6716	16,000.5	60.643	16,000.5	55.4918	16,000.5	50
16,564.5	82.2712	16,564.5	79.115	16,564.5	72.9742	16,564.5	67.4201	16,564.5	61.6948	16,564.5	56.1408	16,564.5	50
17,148.9	84.1365	17,148.9	80.9588	17,148.9	74.7038	17,148.9	68.9512	17,148.9	62.0076	17,148.9	56.255	17,148.9	50
17,752.4	84.8269	17,752.4	82.0398	17,752.4	76.1885	17,752.4	71.0357	17,752.4	61.0041	17,752.4	55.8513	17,752.4	50
18,379.4	85.3576	18,379.4	82.8792	18,379.4	77.2511	18,379.4	71.9818	18,379.4	60.8974	18,379.4	55.6281	18,379.4	50
19,026.9	84.3645	19,026.9	82.7876	19,026.9	77.7663	19,026.9	73.1692	19,026.9	59.6184	19,026.9	55.0213	19,026.9	50
19,697.8	79.5173	19,697.8	80.2288	19,697.8	77.0049	19,697.8	73.0234	19,697.8	57.2054	19,697.8	53.2239	19,697.8	50
19,999.5	76.5043	19,999.5	78.4214	19,999.5	75.9994	19,999.5	72.3416	19,999.5	56.0798	19,999.5	52.4221	19,999.5	50
