"Early Reflections"
"Floor Bounce"		"Ceiling Bounce"		"Front Wall Bounce"		"Side Wall Bounce"		"Rear Wall Bounce (full horizontal rear)"		"Total Early Reflection"
"Frequency [Hz]"	"Sound Pessure Level [dB]   [2.83  V @ 1. m]"	"Frequency [Hz]"	"Sound Pessure Level [dB]   [2.83  V @ 1. m]"	"Frequency [Hz]"	"Sound Pessure Level [dB]   [2.83  V @ 1. m]"	"Frequency [Hz]"	"Sound Pessure Level [dB]   [2.83  V @ 1. m]"	"Frequency [Hz]"	"Sound Pessure Level [dB]   [2.83  V @ 1. m]"	"Frequency [Hz]"	"Sound Pessure Level [dB]   [2.83  V @ 1. m]"
20.5078	70.6933	20.5078	69.5457	20.5078	70.2981	20.5078	70.0849	20.5078	69.5402	20.5078	70.0553
21.9727	72.4189	21.9727	70.9789	21.9727	71.9132	21.9727	71.6117	21.9727	70.8113	21.9727	71.5875
23.4375	73.2832	23.4375	71.698	23.4375	72.7239	23.4375	72.3907	23.4375	71.4762	23.4375	72.3651
24.9023	74.2656	24.9023	72.7102	24.9023	73.7318	24.9023	73.3867	24.9023	72.4394	24.9023	73.3578
26.3672	75.223	26.3672	73.8086	26.3672	74.7361	26.3672	74.4129	26.3672	73.535	26.3672	74.3862
27.832	76.2369	27.832	74.8991	27.832	75.796	27.832	75.4297	27.832	74.4033	27.832	75.4007
29.2969	76.849	29.2969	75.3825	29.2969	76.336	29.2969	75.9976	29.2969	75.0772	29.2969	75.9755
30.7617	77.5377	30.7617	76.0807	30.7617	77.0341	30.7617	76.694	30.7617	75.7866	30.7617	76.6728
32.2266	78.1943	32.2266	76.7842	32.2266	77.7092	32.2266	77.3794	32.2266	76.5122	32.2266	77.3587
33.6914	78.8281	33.6914	77.3764	33.6914	78.325	33.6914	77.9932	33.6914	77.1763	33.6914	77.9823
35.1562	79.4313	35.1562	77.9424	35.1562	78.9216	35.1562	78.5621	35.1562	77.6707	35.1562	78.5528
36.6211	80.1309	36.6211	78.6299	36.6211	79.6239	36.6211	79.2386	36.6211	78.2749	36.6211	79.2308
38.0859	80.5781	38.0859	79.0868	38.0859	80.0794	38.0859	79.6792	38.0859	78.6742	38.0859	79.6726
39.5508	81.2962	39.5508	79.7464	39.5508	80.7699	39.5508	80.3703	39.5508	79.3709	39.5508	80.3656
41.0156	81.8908	41.0156	80.2924	41.0156	81.3582	41.0156	80.9395	41.0156	79.8944	41.0156	80.9341
42.4805	82.2091	42.4805	80.6534	42.4805	81.6912	42.4805	81.2704	42.4805	80.1796	42.4805	81.2604
43.9453	82.3954	43.9453	80.8223	43.9453	81.8637	43.9453	81.4408	43.9453	80.3731	43.9453	81.4386
45.4102	82.4521	45.4102	80.889	45.4102	81.9201	45.4102	81.5307	45.4102	80.5853	45.4102	81.5282
46.875	82.7964	46.875	81.2299	46.875	82.2598	46.875	81.8889	46.875	81.0326	46.875	81.8905
48.3398	83.1624	48.3398	81.5484	48.3398	82.6135	48.3398	82.2269	48.3398	81.3798	48.3398	82.237
51.2695	83.7376	51.2695	82.1998	51.2695	83.261	51.2695	82.7901	51.2695	81.7168	51.2695	82.8008
52.7344	83.9983	52.7344	82.4725	52.7344	83.5391	52.7344	83.0269	52.7344	81.7541	52.7344	83.0286
54.1992	84.2248	54.1992	82.6981	54.1992	83.7454	54.1992	83.2672	54.1992	82.073	54.1992	83.2671
55.6641	84.2164	55.6641	82.7075	55.6641	83.7158	55.6641	83.3117	55.6641	82.3951	55.6641	83.3195
58.5938	84.5079	58.5938	82.9629	58.5938	83.9968	58.5938	83.5633	58.5938	82.6481	58.5938	83.5883
60.0586	84.6146	60.0586	83.0642	60.0586	84.1038	60.0586	83.6774	60.0586	82.7749	60.0586	83.6988
62.9883	84.7853	62.9883	83.2363	62.9883	84.2907	62.9883	83.8418	62.9883	82.9385	62.9883	83.8709
64.4531	84.8146	64.4531	83.2282	64.4531	84.2982	64.4531	83.8578	64.4531	83.0045	64.4531	83.8923
67.3828	84.8113	67.3828	83.1908	67.3828	84.2861	67.3828	83.8404	67.3828	83.0532	67.3828	83.8869
68.8477	84.8117	68.8477	83.167	68.8477	84.2859	68.8477	83.8193	68.8477	83.0067	68.8477	83.8711
71.7773	84.9857	71.7773	83.3103	71.7773	84.4577	71.7773	83.9764	71.7773	83.188	71.7773	84.0373
74.707	85.0994	74.707	83.4481	74.707	84.5898	74.707	84.083	74.707	83.2611	74.707	84.1511
77.6367	85.1653	77.6367	83.5129	77.6367	84.6736	77.6367	84.1117	77.6367	83.1987	77.6367	84.1928
79.1016	85.1548	79.1016	83.4519	79.1016	84.6486	79.1016	84.0711	79.1016	83.101	79.1016	84.1508
82.0312	85.1335	82.0312	83.4562	82.0312	84.6398	82.0312	84.0631	82.0312	83.0791	82.0312	84.1392
84.9609	85.0356	84.9609	83.4907	84.9609	84.6043	84.9609	84.0296	84.9609	83.1038	84.9609	84.1101
87.8906	84.86	87.8906	83.1859	87.8906	84.3653	87.8906	83.7991	87.8906	83.1666	87.8906	83.9264
90.8203	85.3234	90.8203	83.4401	90.8203	84.8027	90.8203	84.0692	90.8203	82.9015	90.8203	84.196
95.2148	84.6705	95.2148	82.9094	95.2148	84.1654	95.2148	83.5392	95.2148	82.7822	95.2148	83.6741
98.1445	84.7462	98.1445	82.9706	98.1445	84.2641	98.1445	83.5674	98.1445	82.6567	98.1445	83.7112
101.074	84.5232	101.074	82.7484	101.074	84.0387	101.074	83.3635	101.074	82.5566	101.074	83.511
105.469	84.9867	105.469	82.9876	105.469	84.4816	105.469	83.6216	105.469	82.6165	105.469	83.8301
108.398	85.3036	108.398	83.2694	108.398	84.8416	108.398	83.8739	108.398	82.537	108.398	84.0813
112.793	85.3667	112.793	83.5151	112.793	84.9607	112.793	84.033	112.793	82.4509	112.793	84.1865
117.188	85.2694	117.188	83.2721	117.188	84.7608	117.188	83.9019	117.188	82.4691	117.188	84.0494
120.117	84.9986	120.117	83.1447	120.117	84.5399	120.117	83.8184	120.117	82.4879	120.117	83.892
124.512	84.4455	124.512	82.4768	124.512	84.0103	124.512	83.1226	124.512	82.7119	124.512	83.4201
128.906	84.9869	128.906	82.849	128.906	84.5091	128.906	83.4493	128.906	82.4497	128.906	83.7565
133.301	85.0891	133.301	82.9542	133.301	84.621	133.301	83.5865	133.301	82.4556	133.301	83.854
139.16	85.0718	139.16	82.9894	139.16	84.6076	139.16	83.6009	139.16	82.4953	139.16	83.8604
143.555	84.7083	143.555	82.6812	143.555	84.2777	143.555	83.3144	143.555	82.6721	143.555	83.6112
147.949	84.2347	147.949	82.0644	147.949	83.7517	147.949	82.6983	147.949	82.7394	147.949	83.1692
153.809	84.1944	153.809	81.2216	153.809	83.6522	153.809	81.7101	153.809	82.2541	153.809	82.7569
159.668	84.7932	159.668	81.9332	159.668	84.3673	159.668	82.4087	159.668	81.6135	159.668	83.2225
165.527	85.1132	165.527	82.3847	165.527	84.7536	165.527	82.8156	165.527	81.6066	165.527	83.5508
171.387	85.2915	171.387	82.6069	171.387	84.9395	171.387	82.959	171.387	81.3929	171.387	83.6838
177.246	85.2666	177.246	82.4775	177.246	84.865	177.246	82.9602	177.246	81.0194	177.246	83.5941
183.105	85.124	183.105	82.0742	183.105	84.6574	183.105	82.6532	183.105	80.9675	183.105	83.3767
188.965	85.3461	188.965	82.1411	188.965	84.8889	188.965	82.771	188.965	80.5602	188.965	83.4927
196.289	86.062	196.289	82.8002	196.289	85.6319	196.289	83.5755	196.289	80.1904	196.289	84.1243
203.613	86.203	203.613	83.371	203.613	85.9587	203.613	84.0162	203.613	80.2053	203.613	84.4273
210.938	86.4028	210.938	83.6726	210.938	86.2284	210.938	84.4654	210.938	79.5164	210.938	84.6491
218.262	85.5733	218.262	83.3971	218.262	85.312	218.262	84.1313	218.262	79.6248	218.262	84.048
225.586	85.696	225.586	82.9999	225.586	85.4899	225.586	83.8117	225.586	80.6207	225.586	84.0844
232.91	86.5472	232.91	83.5211	232.91	86.3999	232.91	84.3999	232.91	80.5069	232.91	84.7736
241.699	86.5181	241.699	83.5916	241.699	86.3382	241.699	84.6828	241.699	79.6663	241.699	84.7541
250.488	86.4244	250.488	83.5508	250.488	86.1744	250.488	84.5743	250.488	80.5705	250.488	84.7148
259.277	87.2319	259.277	83.9556	259.277	86.9076	259.277	84.8437	259.277	80.6728	259.277	85.2885
268.066	86.8332	268.066	84.0945	268.066	86.56	268.066	84.7114	268.066	79.7969	268.066	85.0058
276.855	86.2635	276.855	83.6624	276.855	86.124	276.855	84.4237	276.855	80.1931	276.855	84.6135
287.109	86.0399	287.109	83.5056	287.109	86.0623	287.109	84.2488	287.109	80.1699	287.109	84.4709
297.363	86.3027	297.363	83.6125	297.363	86.3604	297.363	84.3682	297.363	80.5429	297.363	84.7008
307.617	87.4373	307.617	83.7996	307.617	87.3471	307.617	85.1569	307.617	79.267	307.617	85.4391
319.336	87.081	319.336	83.2188	319.336	86.8798	319.336	84.8714	319.336	79.6544	319.336	85.0713
329.59	87.7323	329.59	83.6507	329.59	87.729	329.59	85.8629	329.59	79.449	329.59	85.7786
341.309	86.5745	341.309	83.3047	341.309	86.7086	341.309	85.2661	341.309	79.7995	341.309	84.966
353.027	86.3538	353.027	83.0643	353.027	86.5293	353.027	84.708	353.027	79.6171	353.027	84.6874
366.211	85.8827	366.211	83.4327	366.211	86.37	366.211	84.8326	366.211	79.8005	366.211	84.5976
379.395	87.3152	379.395	83.4851	379.395	87.4521	379.395	84.7563	379.395	78.5392	379.395	85.2856
392.578	87.2502	392.578	82.9136	392.578	87.4475	392.578	85.7711	392.578	79.162	392.578	85.4213
405.762	86.7579	405.762	82.8124	405.762	87.0529	405.762	85.5714	405.762	79.9204	405.762	85.1357
420.41	86.9212	420.41	82.3269	420.41	87.0966	420.41	84.62	420.41	79.5854	420.41	84.9308
435.059	86.204	435.059	82.79	435.059	86.8741	435.059	84.7549	435.059	78.8105	435.059	84.681
451.172	86.8713	451.172	83.046	451.172	87.2615	451.172	84.7211	451.172	78.5642	451.172	85.0213
465.82	87.1128	465.82	81.4831	465.82	86.5196	465.82	84.1408	465.82	79.0551	465.82	84.605
483.398	85.9135	483.398	81.1068	483.398	86.2278	483.398	82.6426	483.398	77.43	483.398	83.7215
499.512	84.0973	499.512	80.9812	499.512	84.8576	499.512	81.4635	499.512	75.1258	499.512	82.3597
517.09	85.4756	517.09	80.9843	517.09	84.9411	517.09	81.0377	517.09	75.7357	517.09	82.8089
536.133	87.3493	536.133	82.2458	536.133	87.5938	536.133	83.329	536.133	77.3816	536.133	84.9289
555.176	87.4317	555.176	82.9055	555.176	88.1795	555.176	84.0023	555.176	77.5056	555.176	85.3504
574.219	87.2454	574.219	82.3188	574.219	87.9412	574.219	84.0398	574.219	77.3382	574.219	85.1349
594.727	86.8462	594.727	83.0578	594.727	87.42	594.727	83.0995	594.727	76.7219	594.727	84.7398
615.234	87.5536	615.234	82.8244	615.234	87.9262	615.234	83.2491	615.234	76.7578	615.234	85.1587
637.207	86.3635	637.207	82.695	637.207	87.7604	637.207	83.4389	637.207	76.2259	637.207	84.7089
659.18	86.7099	659.18	82.5142	659.18	87.4865	659.18	83.0692	659.18	76.8087	659.18	84.6494
682.617	87.2776	682.617	82.7845	682.617	87.5266	682.617	83.0564	682.617	75.8465	682.617	84.8586
707.52	86.2581	707.52	82.6212	707.52	86.4024	707.52	82.1989	707.52	74.8024	707.52	83.9383
732.422	86.3919	732.422	82.5636	732.422	86.2974	732.422	81.4969	732.422	74.4576	732.422	83.8437
757.324	86.3696	757.324	81.9958	757.324	86.3027	757.324	81.0232	757.324	72.0486	757.324	83.6595
785.156	86.422	785.156	82.296	785.156	85.4239	785.156	80.2265	785.156	71.9321	785.156	83.3365
811.523	85.4315	811.523	83.4405	811.523	85.7113	811.523	80.7999	811.523	72.7819	811.523	83.3517
840.82	86.5701	840.82	83.0085	840.82	85.6212	840.82	80.6487	840.82	72.9037	840.82	83.6337
870.117	86.1149	870.117	82.255	870.117	85.1788	870.117	80.9193	870.117	71.4889	870.117	83.1975
900.879	85.9447	900.879	84.0314	900.879	84.2522	900.879	80.4386	900.879	72.3938	900.879	83.1818
933.105	85.7643	933.105	82.3704	933.105	84.442	933.105	79.6407	933.105	71.2299	933.105	82.7096
965.332	85.2028	965.332	81.6891	965.332	84.6307	965.332	79.694	965.332	71.5624	965.332	82.4396
1,000.49	84.3326	1,000.49	81.01	1,000.49	84.2791	1,000.49	78.761	1,000.49	69.0832	1,000.49	81.7522
1,035.64	84.2745	1,035.64	82.0483	1,035.64	84.7651	1,035.64	79.2859	1,035.64	69.6855	1,035.64	82.1567
1,072.27	84.2744	1,072.27	82.4007	1,072.27	84.6077	1,072.27	78.7637	1,072.27	68.8465	1,072.27	82.1122
1,108.89	84.5401	1,108.89	81.8199	1,108.89	84.8561	1,108.89	79.0941	1,108.89	68.0557	1,108.89	82.201
1,148.44	84.6584	1,148.44	81.6817	1,148.44	85.6833	1,148.44	79.2671	1,148.44	69.3784	1,148.44	82.5664
1,189.45	84.8747	1,189.45	80.4834	1,189.45	86.7276	1,189.45	79.9837	1,189.45	69.8337	1,189.45	83.0058
1,230.47	85.1459	1,230.47	80.5934	1,230.47	87.4343	1,230.47	81.4065	1,230.47	70.6382	1,230.47	83.5999
1,274.41	85.6904	1,274.41	79.9354	1,274.41	88.0437	1,274.41	82.3285	1,274.41	72.9999	1,274.41	84.1413
1,319.82	85.2775	1,319.82	78.8931	1,319.82	88.388	1,319.82	83.4611	1,319.82	73.3121	1,319.82	84.3066
1,366.7	84.6328	1,366.7	80.6267	1,366.7	88.4825	1,366.7	83.7661	1,366.7	73.8053	1,366.7	84.3878
1,413.57	83.6239	1,413.57	80.6376	1,413.57	87.6977	1,413.57	83.7054	1,413.57	74.0189	1,413.57	83.7827
1,463.38	82.8826	1,463.38	81.4907	1,463.38	88.0202	1,463.38	83.4845	1,463.38	72.3141	1,463.38	83.8351
1,516.11	81.6318	1,516.11	82.3202	1,516.11	87.0102	1,516.11	82.5595	1,516.11	72.1348	1,516.11	83.0759
1,568.85	79.5693	1,568.85	81.5643	1,568.85	85.9497	1,568.85	81.6297	1,568.85	70.5318	1,568.85	81.955
1,624.51	78.8491	1,624.51	80.7331	1,624.51	85.5938	1,624.51	81.1646	1,624.51	70.3152	1,624.51	81.4561
1,681.64	77.6344	1,681.64	80.6732	1,681.64	85.8331	1,681.64	81.8953	1,681.64	70.1929	1,681.64	81.6019
1,741.7	76.9832	1,741.7	81.2836	1,741.7	86.1126	1,741.7	82.2348	1,741.7	69.9219	1,741.7	81.8751
1,803.22	76.9515	1,803.22	81.6697	1,803.22	85.9319	1,803.22	82.5871	1,803.22	70.4061	1,803.22	81.9355
1,866.21	78.1648	1,866.21	81.9369	1,866.21	85.6319	1,866.21	82.3668	1,866.21	71.1441	1,866.21	81.8919
1,932.13	78.5058	1,932.13	82.0503	1,932.13	85.3377	1,932.13	82.0975	1,932.13	71.1677	1,932.13	81.7505
1,999.51	80.8838	1,999.51	82.7278	1,999.51	85.4824	1,999.51	82.1377	1,999.51	71.104	1,999.51	82.2523
2,069.82	82.5863	2,069.82	82.3065	2,069.82	86.6127	2,069.82	82.4969	2,069.82	70.5668	2,069.82	83.006
2,143.07	83.4859	2,143.07	82.1955	2,143.07	87.2428	2,143.07	83.084	2,143.07	70.8146	2,143.07	83.5581
2,219.24	83.8551	2,219.24	82.5561	2,219.24	86.9668	2,219.24	83.1993	2,219.24	70.8899	2,219.24	83.5856
2,296.88	84.1339	2,296.88	82.7248	2,296.88	85.8056	2,296.88	82.3976	2,296.88	71.307	2,296.88	83.0715
2,378.91	85.4362	2,378.91	83.2378	2,378.91	85.685	2,378.91	81.8929	2,378.91	71.1269	2,378.91	83.4173
2,462.4	85.9369	2,462.4	83.5896	2,462.4	87.2911	2,462.4	83.1963	2,462.4	71.4686	2,462.4	84.4079
2,548.83	85.2531	2,548.83	84.616	2,548.83	88.274	2,548.83	84.7477	2,548.83	72.3484	2,548.83	85.0847
2,639.65	85.4032	2,639.65	84.3027	2,639.65	87.3372	2,639.65	84.4963	2,639.65	72.7517	2,639.65	84.6491
2,731.93	85.75	2,731.93	83.8444	2,731.93	85.7508	2,731.93	83.8041	2,731.93	73.0795	2,731.93	83.9951
2,828.61	85.1393	2,828.61	82.8162	2,828.61	85.0472	2,828.61	84.3197	2,828.61	72.6828	2,828.61	83.5272
2,928.22	84.5567	2,928.22	83.9214	2,928.22	84.5951	2,928.22	85.1185	2,928.22	72.7717	2,928.22	83.6706
3,030.76	84.2105	3,030.76	84.5128	3,030.76	84.6734	3,030.76	85.1332	3,030.76	72.4479	3,030.76	83.7412
3,137.7	84.15	3,137.7	84.4396	3,137.7	84.5676	3,137.7	84.7308	3,137.7	72.4303	3,137.7	83.5753
3,249.02	84.6844	3,249.02	84.065	3,249.02	83.0751	3,249.02	83.9098	3,249.02	71.7001	3,249.02	83.0658
3,363.28	85.0894	3,363.28	85.0906	3,363.28	82.7106	3,363.28	83.3266	3,363.28	71.04	3,363.28	83.2641
3,481.93	85.6772	3,481.93	85.7115	3,481.93	83.2403	3,481.93	83.5802	3,481.93	71.304	3,481.93	83.7823
3,604.98	86.7944	3,604.98	85.8647	3,604.98	83.8091	3,604.98	84.0828	3,604.98	72.3773	3,604.98	84.4016
3,732.42	87.0217	3,732.42	85.479	3,732.42	85.4725	3,732.42	84.5673	3,732.42	73.233	3,732.42	84.8192
3,864.26	87.3676	3,864.26	85.7476	3,864.26	86.1039	3,864.26	84.1798	3,864.26	71.8168	3,864.26	85.0673
4,000.49	87.3326	4,000.49	85.7968	4,000.49	86.0608	4,000.49	83.4349	4,000.49	71.1025	4,000.49	84.9364
4,141.11	86.7818	4,141.11	85.8055	4,141.11	86.8237	4,141.11	83.6468	4,141.11	70.8495	4,141.11	85.0031
4,287.6	87.6313	4,287.6	85.8396	4,287.6	87.0758	4,287.6	84.3299	4,287.6	70.8152	4,287.6	85.4565
4,438.48	87.4262	4,438.48	85.6777	4,438.48	87.0584	4,438.48	84.4049	4,438.48	71.9783	4,438.48	85.3706
4,595.21	86.9753	4,595.21	85.3859	4,595.21	86.8639	4,595.21	84.3809	4,595.21	71.4508	4,595.21	85.0997
4,756.35	86.1305	4,756.35	85.4421	4,756.35	86.9799	4,756.35	84.543	4,756.35	71.9455	4,756.35	84.9402
4,924.8	85.7906	4,924.8	84.2325	4,924.8	87.5056	4,924.8	84.4083	4,924.8	71.3951	4,924.8	84.763
5,097.66	86.2438	5,097.66	83.8052	5,097.66	86.4761	5,097.66	84.4695	5,097.66	71.1485	5,097.66	84.4666
5,277.83	85.4065	5,277.83	82.839	5,277.83	86.0828	5,277.83	83.6129	5,277.83	71.2783	5,277.83	83.7602
5,463.87	85.6217	5,463.87	82.3333	5,463.87	86.0224	5,463.87	84.2243	5,463.87	70.8617	5,463.87	83.8485
5,657.23	85.9038	5,657.23	82.2611	5,657.23	85.521	5,657.23	83.5406	5,657.23	70.8492	5,657.23	83.6262
5,856.45	86.8956	5,856.45	82.1575	5,856.45	85.2826	5,856.45	83.3336	5,856.45	68.353	5,856.45	83.8504
6,062.99	86.7482	6,062.99	82.3325	6,062.99	85.5623	6,062.99	83.3158	6,062.99	68.0403	6,062.99	83.8915
6,276.86	86.3727	6,276.86	82.372	6,276.86	85.4151	6,276.86	83.2468	6,276.86	68.2657	6,276.86	83.7007
6,498.05	85.5796	6,498.05	81.4327	6,498.05	85.576	6,498.05	83.0378	6,498.05	68.9097	6,498.05	83.3065
6,726.56	86.1773	6,726.56	80.8574	6,726.56	86.178	6,726.56	83.6473	6,726.56	68.7013	6,726.56	83.7669
6,963.87	86.181	6,963.87	80.313	6,963.87	85.5987	6,963.87	83.2505	6,963.87	68.5745	6,963.87	83.4403
7,209.96	86.322	7,209.96	80.0951	7,209.96	86.2658	7,209.96	83.031	7,209.96	67.5468	7,209.96	83.658
7,464.84	85.8096	7,464.84	80.2183	7,464.84	86.4553	7,464.84	82.5724	7,464.84	67.7384	7,464.84	83.4832
7,727.05	85.9485	7,727.05	80.5307	7,727.05	86.1641	7,727.05	82.4948	7,727.05	66.2802	7,727.05	83.431
7,999.51	85.8537	7,999.51	80.4008	7,999.51	86.3726	7,999.51	82.3251	7,999.51	64.9073	7,999.51	83.4332
8,282.23	86.0909	8,282.23	80.3933	8,282.23	85.9866	8,282.23	81.763	8,282.23	63.611	8,282.23	83.2849
8,573.73	85.7157	8,573.73	80.7356	8,573.73	86.3374	8,573.73	81.5932	8,573.73	61.6072	8,573.73	83.2935
8,876.95	85.6557	8,876.95	80.9193	8,876.95	86.3311	8,876.95	80.7325	8,876.95	61.5156	8,876.95	83.1839
9,188.96	85.6366	9,188.96	79.1316	9,188.96	86.5408	9,188.96	81.455	9,188.96	67.106	9,188.96	83.1967
9,514.16	85.9077	9,514.16	77.856	9,514.16	85.9347	9,514.16	81.3214	9,514.16	65.8001	9,514.16	82.9328
9,849.61	85.8123	9,849.61	78.2896	9,849.61	86.0144	9,849.61	80.7775	9,849.61	64.3934	9,849.61	82.8802
10,196.8	85.9876	10,196.8	78.4837	10,196.8	86.1179	10,196.8	80.6255	10,196.8	65.6003	10,196.8	82.9915
10,555.7	85.8488	10,555.7	78.7959	10,555.7	86.2474	10,555.7	80.4364	10,555.7	62.0938	10,555.7	82.9837
10,927.7	85.611	10,927.7	79.4807	10,927.7	86.4814	10,927.7	80.2197	10,927.7	60.3813	10,927.7	83.0267
11,313	85.8209	11,313	80.625	11,313	86.7315	11,313	80.6778	11,313	61.6459	11,313	83.3726
11,712.9	86.1711	11,712.9	82.2094	11,712.9	86.988	11,712.9	81.214	11,712.9	62.7199	11,712.9	83.8537
12,126	85.9552	12,126	82.2088	12,126	87.7283	12,126	79.409	12,126	59.8773	12,126	83.9489
12,553.7	86.6002	12,553.7	81.0593	12,553.7	88.271	12,553.7	78.3451	12,553.7	56.8081	12,553.7	84.2328
12,996.1	88.0214	12,996.1	79.6113	12,996.1	88.3856	12,996.1	78.5239	12,996.1	60.3715	12,996.1	84.7343
13,454.6	87.6015	13,454.6	73.5617	13,454.6	87.6077	13,454.6	74.6591	13,454.6	61.1727	13,454.6	83.8214
13,929.2	86.2519	13,929.2	73.2498	13,929.2	87.2426	13,929.2	76.2918	13,929.2	62.1225	13,929.2	83.0844
14,419.9	82.0628	14,419.9	76.1289	14,419.9	84.9594	14,419.9	74.6604	14,419.9	59.7741	14,419.9	80.3766
14,928.2	78.6752	14,928.2	76.0471	14,928.2	81.0719	14,928.2	73.0682	14,928.2	59.1109	14,928.2	77.2104
15,455.6	68.3461	15,455.6	71.6832	15,455.6	73.2161	15,455.6	69.6202	15,455.6	57.7174	15,455.6	70.1946
16,000.5	67.7046	16,000.5	69.4352	16,000.5	76.0813	16,000.5	67.0398	16,000.5	51.2617	16,000.5	70.8228
16,564.5	70.8571	16,564.5	67.3333	16,564.5	78.7841	16,564.5	67.6505	16,564.5	52.4645	16,564.5	72.9742
17,148.9	72.8695	17,148.9	67.7618	17,148.9	80.5864	17,148.9	68.8554	17,148.9	53.314	17,148.9	74.7038
17,752.4	72.8073	17,752.4	72.4907	17,752.4	81.7998	17,752.4	72.821	17,752.4	57.452	17,752.4	76.1885
18,379.4	75.6107	18,379.4	75.295	18,379.4	82.6837	18,379.4	69.7325	18,379.4	55.4877	18,379.4	77.2511
19,026.9	75.5275	19,026.9	77.4127	19,026.9	82.6983	19,026.9	73.3701	19,026.9	54.2216	19,026.9	77.7663
19,697.8	77.7605	19,697.8	76.4536	19,697.8	80.213	19,697.8	76.1725	19,697.8	57.1932	19,697.8	77.0049
19,999.5	77.8459	19,999.5	73.4641	19,999.5	78.47	19,999.5	76.5322	19,999.5	57.9118	19,999.5	75.9994
