Freq[Hz]     dBSPL  Phase[Deg]
5.00000    -56.830  -130.511
5.07273    -55.834  -129.758
5.14651    -54.939  -128.992
5.22137    -53.943  -128.211
5.29732    -53.049  -127.415
5.37437    -52.054  -126.600
5.45254    -51.060  -125.771
5.53185    -50.166  -124.925
5.61231    -49.173  -124.062
5.69394    -48.280  -123.182
5.77676    -47.288  -122.281
5.86079    -46.295  -121.363
5.94604    -45.404  -120.427
6.03252    -44.413  -119.469
6.12027    -43.523  -118.491
6.20929    -42.534  -117.493
6.29961    -41.544  -116.471
6.39124    -40.655  -115.430
6.48420    -39.666  -114.365
6.57851    -38.779  -113.274
6.67420    -37.791  -112.160
6.77128    -36.805  -111.022
6.86977    -35.918  -109.858
6.96969    -34.932  -108.666
7.07107    -34.047  -107.448
7.17392    -33.063  -106.202
7.27827    -32.079  -104.928
7.38413    -31.195  -103.622
7.49154    -30.213  -102.288
7.60050    -29.330  -100.921
7.71105    -28.349   -99.522
7.82321    -27.367   -98.091
7.93701    -26.487   -96.627
8.05245    -25.507   -95.127
8.16958    -24.629   -93.592
8.28841    -23.650   -92.022
8.40896    -22.672   -90.413
8.53128    -21.796   -88.767
8.65537    -20.819   -87.083
8.78126    -19.943   -85.361
8.90899    -18.968   -83.598
9.03857    -17.994   -81.796
9.17004    -17.120   -79.954
9.30342    -16.148   -78.069
9.43874    -15.275   -76.145
9.57603    -14.304   -74.179
9.71532    -13.333   -72.173
9.85663    -12.463   -70.127
10.0000    -11.495   -68.038
10.1455    -10.626   -65.913
10.2930     -9.659   -63.745
10.4427     -8.691   -61.540
10.5946     -7.826   -59.299
10.7487     -6.860   -57.022
10.9051     -5.996   -54.713
11.0637     -5.032   -52.368
11.2246     -4.070   -49.994
11.3879     -3.207   -47.593
11.5535     -2.247   -45.163
11.7216     -1.387   -42.712
11.8921     -0.427   -40.238
12.0650      0.531   -37.746
12.2405      1.389   -35.239
12.4186      2.345   -32.721
12.5992      3.201   -30.192
12.7825      4.156   -27.655
12.9684      5.110   -25.115
13.1570      5.963   -22.571
13.3484      6.916   -20.031
13.5426      7.767   -17.495
13.7395      8.716   -14.961
13.9394      9.666   -12.439
14.1421     10.514    -9.926
14.3478     11.462    -7.426
14.5565     12.308    -4.938
14.7683     13.255    -2.467
14.9831     14.199    -0.012
15.2010     15.043     2.425
15.4221     15.985     4.846
15.6464     16.827     7.244
15.8740     17.768     9.626
16.1049     18.708    11.987
16.3392     19.546    14.327
16.5768     20.484    16.649
16.8179     21.421    18.951
17.0626     22.256    21.231
17.3107     23.192    23.496
17.5625     24.025    25.740
17.8180     24.958    27.965
18.0771     25.889    30.175
18.3401     26.721    32.366
18.6068     27.650    34.542
18.8775     28.479    36.702
19.1521     29.406    38.847
19.4306     30.333    40.979
19.7133     31.159    43.097
20.0000     32.083    45.203
20.2909     32.907    47.297
20.5860     33.673    49.878
20.8855     34.698    54.096
21.1893     35.834    58.436
21.4975     37.076    61.502
21.8102     38.424    63.018
22.1274     39.535    63.280
22.4492     40.363    62.972
22.7758     41.019    63.059
23.1071     41.508    64.566
23.4432     41.973    67.454
23.7841     42.640    71.593
24.1301     43.662    74.875
24.4811     44.706    76.530
24.8372     45.460    76.755
25.1984     46.128    76.342
25.5649     46.566    76.343
25.9368     46.950    77.329
26.3141     47.383    78.952
26.6968     47.889    80.693
27.0851     48.395    81.817
27.4791     48.714    82.276
27.8788     49.069    83.005
28.2843     49.303    84.466
28.6957     49.683    86.530
29.1131     50.167    88.284
29.5365     50.750    89.138
29.9661     51.214    89.151
30.4020     51.660    88.881
30.8442     51.955    88.832
31.2929     52.320    89.003
31.7480     52.723    89.097
32.2098     53.031    88.969
32.6783     53.355    88.907
33.1536     53.679    89.165
33.6359     54.037    89.609
34.1251     54.420    89.794
34.6215     54.851    89.572
35.1250     55.272    89.230
35.6359     55.560    89.129
36.1543     55.987    89.152
36.6802     56.413    88.900
37.2137     56.837    88.212
37.7550     57.211    87.471
38.3041     57.532    87.102
38.8613     57.904    86.988
39.4265     58.288    86.740
40.0000     58.627    86.227
40.5818     58.905    85.647
41.1721     59.396    85.106
41.7710     59.785    84.480
42.3785     60.114    83.738
42.9949     60.431    83.200
43.6203     60.675    82.939
44.2548     61.213    82.622
44.8985     61.547    81.900
45.5515     62.025    80.957
46.2141     62.445    80.152
46.8863     62.804    79.571
47.5683     63.147    78.881
48.2602     63.630    77.925
48.9621     63.981    76.983
49.6743     64.394    76.223
50.3968     64.872    75.496
51.1299     65.237    74.681
51.8736     65.737    73.830
52.6281     66.249    72.925
53.3936     66.660    71.907
54.1702     66.983    70.910
54.9581     67.522    69.990
55.7575     67.979    68.800
56.5685     68.364    67.354
57.3914     68.764    66.209
58.2261     69.306    65.337
59.0730     69.747    64.063
59.9323     70.171    62.556
60.8040     70.647    61.236
61.6884     71.047    59.884
62.5857     71.584    58.534
63.4960     71.968    57.242
64.4196     72.530    55.865
65.3566     73.030    54.381
66.3073     73.432    52.805
67.2717     73.970    51.262
68.2502     74.270    49.633
69.2429     74.811    47.877
70.2501     75.244    46.132
71.2719     75.751    44.289
72.3086     76.150    42.364
73.3603     76.690    40.414
74.4274     77.030    38.394
75.5099     77.462    36.302
76.6083     77.869    34.073
77.7226     78.269    31.822
78.8531     78.608    29.612
80.0000     78.925    27.369
81.1636     79.247    25.084
82.3442     79.646    22.798
83.5419     79.973    20.577
84.7570     80.258    18.339
85.9899     80.524    16.112
87.2406     80.853    13.851
88.5096     81.050    11.537
89.7970     81.281     9.222
91.1031     81.513     6.928
92.4282     81.837     4.518
93.7726     81.999     2.016
95.1366     82.207    -0.474
96.5204     82.393    -2.999
97.9243     82.497    -5.499
99.3486     82.637    -7.835
100.794     82.760    -9.932
102.260     82.822   -11.810
103.747     82.863   -13.476
105.256     83.058   -15.067
106.787     83.151   -16.733
108.340     83.252   -18.420
109.916     83.451   -20.118
111.515     83.617   -21.792
113.137     83.731   -23.475
114.783     83.799   -25.118
116.452     83.899   -26.596
118.146     84.038   -27.885
119.865     84.162   -29.044
121.608     84.131   -30.371
123.377     84.268   -31.539
125.171     84.324   -32.638
126.992     84.524   -33.718
128.839     84.624   -34.791
130.713     84.750   -35.838
132.615     84.859   -36.869
134.543     85.047   -37.962
136.500     85.115   -39.106
138.486     85.347   -40.145
140.500     85.515   -41.264
142.544     85.468   -42.341
144.617     85.607   -43.163
146.721     85.641   -43.854
148.855     85.740   -44.596
151.020     85.863   -45.326
153.217     85.963   -46.139
155.445     86.082   -47.082
157.706     86.185   -48.072
160.000     86.176   -49.109
162.327     86.177   -49.976
164.688     86.261   -50.482
167.084     86.367   -50.966
169.514     86.454   -51.764
171.980     86.433   -52.716
174.481     86.524   -53.548
177.019     86.600   -54.284
179.594     86.587   -54.980
182.206     86.650   -55.786
184.856     86.724   -56.732
187.545     86.808   -57.598
190.273     86.891   -58.443
193.041     86.982   -59.232
195.849     87.064   -60.028
198.697     87.148   -60.912
201.587     87.219   -61.762
204.520     87.216   -62.532
207.494     87.314   -63.270
210.512     87.381   -64.140
213.574     87.485   -65.167
216.681     87.567   -66.189
219.833     87.646   -67.149
223.030     87.644   -68.002
226.274     87.642   -68.809
229.565     87.641   -69.573
232.905     87.550   -70.255
236.292     87.498   -70.854
239.729     87.545   -71.376
243.216     87.498   -71.792
246.754     87.518   -72.114
250.343     87.516   -72.375
253.984     87.475   -72.544
257.678     87.414   -72.637
261.426     87.413   -72.689
265.229     87.466   -72.709
269.087     87.511   -72.711
273.001     87.510   -72.706
276.972     87.507   -72.704
281.000     87.506   -72.711
285.088     87.505   -72.736
289.234     87.500   -72.781
293.441     87.545   -72.844
297.709     87.602   -72.923
302.040     87.601   -73.011
306.433     87.584   -73.100
310.890     87.498   -73.178
315.412     87.499   -73.225
320.000     87.497   -73.221
324.655     87.480   -73.150
329.377     87.394   -72.991
334.168     87.308   -72.704
339.028     87.218   -72.286
343.959     87.144   -71.727
348.962     87.094   -71.037
354.038     87.094   -70.228
359.188     87.008   -69.299
364.412     86.993   -68.284
369.713     86.993   -67.274
375.090     86.993   -66.324
380.546     87.059   -65.453
386.081     87.132   -64.729
391.697     87.192   -64.147
397.394     87.191   -63.702
403.175     87.191   -63.381
409.039     87.191   -63.100
414.989     87.190   -62.783
421.025     87.160   -62.356
427.149     87.064   -61.755
433.362     86.953   -60.935
439.665     86.871   -59.825
446.060     86.787   -58.521
452.548     86.786   -57.117
459.131     86.785   -55.697
465.809     86.784   -54.390
472.584     86.811   -53.318
479.458     86.882   -52.503
486.432     86.881   -51.873
493.507     86.859   -51.327
500.686     86.738   -50.713
507.968     86.596   -49.887
515.357     86.425   -48.737
522.853     86.316   -47.195
530.458     86.175   -45.324
538.174     86.035   -43.340
546.002     85.966   -41.455
553.943     85.963   -39.780
562.001     85.914   -38.359
570.175     85.817   -37.093
578.469     85.657   -35.747
586.883     85.444   -34.067
595.419     85.200   -31.830
604.080     84.984   -28.915
612.866     84.845   -25.474
621.780     84.825   -21.870
630.824     84.926   -18.510
640.000     85.053   -15.690
649.309     85.167   -13.369
658.753     85.265   -11.309
668.335     85.327    -9.269
678.056     85.379    -7.250
687.919     85.456    -5.306
697.925     85.532    -3.631
708.077     85.597    -2.373
718.376     85.590    -1.383
728.825     85.435    -0.274
739.426     85.143     1.536
750.181     84.843     4.598
761.093     84.604     9.020
772.163     84.567    14.092
783.394     84.796    18.812
794.789     85.111    22.434
806.349     85.351    24.802
818.078     85.440    26.544
829.977     85.419    28.420
842.050     85.269    31.002
854.298     85.140    34.446
866.724     85.059    38.457
879.330     85.049    42.697
892.120     85.111    47.071
905.097     85.208    51.927
918.262     85.280    56.967
931.618     85.521    61.887
945.169     85.813    66.341
958.917     86.142    69.976
972.864     86.434    72.779
987.015     86.613    75.133
1001.37     86.774    77.555
1015.94     86.856    80.205
1030.71     87.015    82.815
1045.71     87.205    85.041
1060.92     87.377    86.748
1076.35     87.520    88.112
1092.00     87.608    89.420
1107.89     87.711    90.662
1124.00     87.823    91.623
1140.35     87.919    92.266
1156.94     87.999    92.743
1173.77     88.083    93.061
1190.84     88.209    92.908
1208.16     88.276    92.006
1225.73     88.258    90.520
1243.56     88.152    88.881
1261.65     88.050    87.158
1280.00     87.909    84.971
1298.62     87.650    82.287
1317.51     87.230    79.739
1336.67     86.741    77.844
1356.11     86.284    76.119
1375.84     85.765    73.934
1395.85     85.058    72.077
1416.15     84.300    72.140
1436.75     83.738    74.053
1457.65     83.306    75.722
1478.85     82.773    77.264
1500.36     82.234    80.356
1522.19     81.997    84.308
1544.33     81.993    86.680
1566.79     81.938    87.347
1589.58     81.696    88.088
1612.70     81.483    89.439
1636.16     81.411    90.551
1659.95     81.370    90.928
1684.10     81.319    90.216
1708.60     81.213    87.714
1733.45     80.770    83.883
1758.66     80.002    80.109
1784.24     79.058    76.398
1810.19     77.775    72.549
1836.52     75.934    71.133
1863.24     73.997    73.524
1890.34     72.351    75.316
1917.83     70.632    70.816
1945.73     67.909    53.016
1974.03     63.225     3.137
2002.74     62.721   -72.585
2031.87     67.316  -107.355
2061.43     71.039  -115.985
2091.41     73.627  -122.299
2121.83     75.445  -127.545
2152.69     76.674  -132.357
2184.01     77.375  -134.179
2215.77     78.330  -133.168
2248.00     79.405  -134.302
2280.70     80.232  -136.126
2313.87     81.047  -138.075
2347.53     81.692  -141.348
2381.68     82.097  -144.602
2416.32     82.365  -147.130
2451.46     82.621  -148.917
2487.12     82.925  -150.696
2523.30     83.103  -152.927
2560.00     83.257  -154.794
2597.24     83.488  -157.166
2635.01     83.616  -160.033
2673.34     83.631  -162.067
2712.23     83.827  -164.232
2751.68     83.956  -167.216
2791.70     84.030  -170.050
2832.31     84.071  -173.847
2873.50     83.916  -177.238
2915.30     83.789   179.890
2957.70     83.733   177.386
3000.72     83.666   174.512
3044.37     83.463   171.287
3088.65     83.265   168.337
3133.58     83.050   166.332
3179.16     83.063   164.585
3225.40     83.031   161.418
3272.31     82.856   158.214
3319.91     82.649   156.241
3368.20     82.597   155.064
3417.19     82.600   153.086
3466.89     82.676   150.024
3517.32     82.438   147.092
3568.48     82.218   146.566
3620.39     82.307   145.578
3673.05     82.389   142.940
3726.47     82.289   140.271
3780.67     82.046   138.483
3835.67     81.958   137.506
3891.46     81.938   135.951
3948.06     81.758   134.035
4005.49     81.496   132.758
4063.75     81.308   132.339
4122.86     81.155   130.997
4182.82     80.790   129.621
4243.66     80.356   129.682
4305.39     80.073   130.978
4368.01     79.804   131.567
4431.55     79.520   133.033
4496.01     79.312   134.692
4561.40     79.160   136.689
4627.75     79.103   138.578
4695.06     79.123   140.484
4763.35     79.170   141.831
4832.64     79.186   143.429
4902.93     79.376   145.512
4974.24     79.609   146.252
5046.60     79.778   147.233
5120.00     80.068   148.033
5194.47     80.241   147.689
5270.03     80.337   148.447
5346.68     80.628   148.664
5424.45     80.770   148.252
5503.35     81.008   149.384
5583.40     81.483   148.991
5664.61     81.662   147.097
5747.01     81.916   146.602
5830.60     82.259   144.707
5915.41     82.288   141.950
6001.45     82.275   140.055
6088.74     82.113   137.671
6177.30     81.869   137.382
6267.15     81.869   136.391
6358.31     81.650   136.138
6450.80     81.597   136.359
6544.62     81.529   136.260
6639.82     81.547   136.412
6736.40     81.529   136.059
6834.38     81.453   135.754
6933.79     81.365   135.720
7034.64     81.247   136.150
7136.96     81.263   137.172
7240.77     81.265   137.902
7346.09     81.375   138.771
7452.94     81.486   139.089
7561.35     81.647   139.136
7671.33     81.726   138.708
7782.91     81.765   138.510
7896.12     81.779   138.146
8010.97     81.807   137.933
8127.49     81.784   137.399
8245.71     81.829   136.805
8365.65     81.652   136.032
8487.33     81.469   135.744
8610.78     81.127   136.839
8736.03     80.980   139.790
8863.09     81.275   143.493
8992.01     81.885   143.449
9122.80     82.083   141.003
9255.50     81.983   139.682
9390.12     81.788   139.418
9526.70     81.724   139.588
9665.27     81.599   139.573
9805.86     81.407   139.123
9948.49     81.079   139.624
10093.2     80.672   141.098
10240.0     80.418   143.685
10388.9     80.340   146.188
10540.1     80.219   147.631
10693.4     80.055   149.419
10848.9     79.972   152.116
11006.7     80.043   153.803
11166.8     80.043   153.690
11329.2     79.644   152.514
11494.0     78.662   153.834
11661.2     77.701   164.730
11830.8     79.372   177.135
12002.9     80.558   170.218
12177.5     79.727   165.947
12354.6     79.033   169.799
12534.3     78.955   173.984
12716.6     79.012   176.649
12901.6     79.020   178.553
13089.2     79.025  -179.264
13279.6     79.130  -177.080
13472.8     79.323  -175.962
13668.8     79.361  -175.642
13867.6     79.276  -174.865
14069.3     79.192  -171.621
14273.9     79.958  -168.771
14481.5     80.301  -173.242
14692.2     80.065  -174.867
14905.9     80.067  -178.902
15122.7     78.879   178.134
15342.7     78.021  -176.757
15565.8     77.780  -173.927
15792.2     77.383  -171.564
16021.9     76.936  -168.082
16255.0     76.646  -163.931
16491.4     76.574  -159.992
16731.3     76.487  -158.289
16974.7     75.654  -153.568
17221.6     75.504  -143.122
17472.1     76.527  -132.824
17726.2     78.339  -130.216
17984.0     79.560  -137.586
18245.6     79.462  -151.662
18511.0     76.376  -152.263
18780.2     75.787  -122.143
19053.4     79.240  -116.148
19330.5     81.060  -131.200
19611.7     80.527  -150.758
19897.0     78.180  -160.785
20186.4     78.130  -159.012
20480.0     78.081  -157.236
20777.9     78.031  -155.461
21080.1     77.982  -153.687
21386.7     77.933  -151.912
21697.8     77.883  -150.138
22013.4     77.834  -148.365
22333.6     77.785  -146.591
22658.4     77.736  -144.818
22988.0     77.687  -143.045
23322.4     77.638  -141.273
23661.6     77.589  -139.501
24005.8     77.540  -137.729
24355.0     77.492  -135.958
24709.2     77.443  -134.186
25068.6     77.394  -132.415
25433.2     77.346  -130.645
25803.2     77.297  -128.874
26178.5     77.248  -127.104
26559.3     77.200  -125.334
26945.6     77.151  -123.565
27337.5     77.103  -121.795
27735.2     77.054  -120.026
28138.6     77.006  -118.257
28547.9     76.957  -116.489
28963.1     76.909  -114.720
29384.4     76.861  -112.952
29811.8     76.812  -111.184
30245.4     76.764  -109.416
30685.3     76.716  -107.648
31131.7     76.667  -105.881
31584.5     76.619  -104.114
32043.9     76.571  -102.347
32510.0     76.523  -100.580
32982.8     76.474   -98.813
33462.6     76.426   -97.047
33949.3     76.378   -95.280
34443.1     76.330   -93.514
34944.1     76.282   -91.748
35452.4     76.233   -89.983
35968.0     76.185   -88.217
36491.2     76.137   -86.451
37022.0     76.089   -84.686
37560.5     76.041   -82.921
38106.8     75.993   -81.156
38661.1     75.945   -79.391
39223.4     75.896   -77.626
39793.9     75.848   -75.862
