Freq[Hz]     dBSPL  Phase[Deg]
5.00000    -15.541   -54.319
5.07273    -14.885   -53.787
5.14651    -14.329   -53.247
5.22137    -13.674   -52.694
5.29732    -13.119   -52.130
5.37437    -12.465   -51.550
5.45254    -11.810   -50.960
5.53185    -11.257   -50.355
5.61231    -10.603   -49.738
5.69394    -10.051   -49.108
5.77676     -9.398   -48.460
5.86079     -8.746   -47.798
5.94604     -8.194   -47.122
6.03252     -7.544   -46.428
6.12027     -6.993   -45.717
6.20929     -6.344   -44.991
6.29961     -5.694   -44.245
6.39124     -5.145   -43.484
6.48420     -4.496   -42.702
6.57851     -3.949   -41.900
6.67420     -3.301   -41.078
6.77128     -2.655   -40.236
6.86977     -2.108   -39.372
6.96969     -1.462   -38.485
7.07107     -0.917   -37.576
7.17392     -0.273   -36.644
7.27827      0.372   -35.688
7.38413      0.915   -34.706
7.49154      1.558   -33.699
7.60050      2.100   -32.665
7.71105      2.742   -31.604
7.82321      3.383   -30.515
7.93701      3.924   -29.398
8.05245      4.563   -28.250
8.16958      5.102   -27.073
8.28841      5.740   -25.865
8.40896      6.379   -24.625
8.53128      6.915   -23.352
8.65537      7.552   -22.046
8.78126      8.088   -20.708
8.90899      8.723   -19.336
9.03857      9.357   -17.929
9.17004      9.891   -16.488
9.30342     10.523   -15.010
9.43874     11.056   -13.500
9.57603     11.687   -11.953
9.71532     12.318   -10.371
9.85663     12.848    -8.756
10.0000     13.476    -7.105
10.1455     14.005    -5.424
10.2930     14.632    -3.706
10.4427     15.260    -1.959
10.5946     15.785    -0.182
10.7487     16.411     1.626
10.9051     16.935     3.458
11.0637     17.559     5.319
11.2246     18.181     7.202
11.3879     18.704     9.104
11.5535     19.324    11.029
11.7216     19.845    12.967
11.8921     20.464    14.920
12.0650     21.083    16.885
12.2405     21.600    18.855
12.4186     22.217    20.831
12.5992     22.732    22.809
12.7825     23.348    24.786
12.9684     23.961    26.759
13.1570     24.475    28.727
13.3484     25.087    30.684
13.5426     25.599    32.628
13.7395     26.208    34.559
13.9394     26.818    36.472
14.1421     27.326    38.366
14.3478     27.934    40.239
14.5565     28.440    42.089
14.7683     29.047    43.914
14.9831     29.651    45.714
15.2010     30.155    47.486
15.4221     30.757    49.231
15.6464     31.259    50.945
15.8740     31.860    52.632
16.1049     32.460    54.289
16.3392     32.958    55.915
16.5768     33.557    57.510
16.8179     34.153    59.077
17.0626     34.649    60.612
17.3107     35.244    62.118
17.5625     35.738    63.593
17.8180     36.330    65.039
18.0771     36.922    66.458
18.3401     37.413    67.847
18.6068     38.003    69.208
18.8775     38.491    70.542
19.1521     39.079    71.849
19.4306     39.666    73.131
19.7133     40.152    74.386
20.0000     40.736    75.618
20.2909     41.220    76.824
20.5860     41.422    78.116
20.8855     41.882    81.055
21.1893     42.603    84.227
21.4975     43.424    86.203
21.8102     44.345    86.698
22.1274     45.023    85.998
22.4492     45.472    84.778
22.7758     45.861    83.997
23.1071     46.078    84.677
23.4432     46.268    86.774
23.7841     46.656    90.155
24.1301     47.395    92.708
24.4811     48.151    93.659
24.8372     48.778    93.206
25.1984     49.266    92.135
25.5649     49.504    91.500
25.9368     49.685    91.870
26.3141     49.912    92.897
26.6968     50.299    94.058
27.0851     50.603    94.620
27.4791     50.811    94.534
27.8788     51.057    94.734
28.2843     51.156    95.682
28.6957     51.383    97.248
29.1131     51.817    98.520
29.5365     52.284    98.904
29.9661     52.714    98.462
30.4020     53.058    97.751
30.8442     53.232    97.276
31.2929     53.475    97.035
31.7480     53.754    96.730
32.2098     54.126    96.215
32.6783     54.355    95.781
33.1536     54.625    95.680
33.6359     54.937    95.777
34.1251     55.220    95.628
34.6215     55.651    95.086
35.1250     55.981    94.435
35.6359     56.260    94.040
36.1543     56.687    93.779
36.6802     56.997    93.257
37.2137     57.337    92.309
37.7550     57.711    91.321
38.3041     58.032    90.717
38.8613     58.393    90.379
39.4265     58.688    89.920
40.0000     59.049    89.205
40.5818     59.324    88.436
41.1721     59.796    87.716
41.7710     60.085    86.921
42.3785     60.486    86.020
42.9949     60.731    85.334
43.6203     61.064    84.934
44.2548     61.513    84.486
44.8985     61.847    83.643
45.5515     62.325    82.588
46.2141     62.745    81.679
46.8863     63.104    81.002
47.5683     63.447    80.223
48.2602     63.851    79.186
48.9621     64.211    78.169
49.6743     64.629    77.341
50.3968     65.111    76.551
51.1299     65.499    75.680
51.8736     65.937    74.777
52.6281     66.449    73.826
53.3936     66.860    72.765
54.1702     67.183    71.730
54.9581     67.722    70.775
55.7575     68.153    69.554
56.5685     68.564    68.080
57.3914     68.964    66.911
58.2261     69.505    66.015
59.0730     69.947    64.721
59.9323     70.305    63.195
60.8040     70.751    61.859
61.6884     71.247    60.492
62.5857     71.784    59.128
63.4960     72.130    57.823
64.4196     72.630    56.435
65.3566     73.130    54.942
66.3073     73.532    53.357
67.2717     74.070    51.806
68.2502     74.470    50.170
69.2429     74.911    48.410
70.2501     75.344    46.660
71.2719     75.851    44.815
72.3086     76.250    42.887
73.3603     76.790    40.938
74.4274     77.130    38.920
75.5099     77.562    36.831
76.6083     77.969    34.609
77.7226     78.369    32.365
78.8531     78.708    30.165
80.0000     79.025    27.936
81.1636     79.347    25.666
82.3442     79.746    23.398
83.5419     80.073    21.197
84.7570     80.358    18.984
85.9899     80.624    16.784
87.2406     80.875    14.553
88.5096     81.150    12.273
89.7970     81.381     9.994
91.1031     81.590     7.739
92.4282     81.876     5.372
93.7726     82.093     2.916
95.1366     82.286     0.473
96.5204     82.437    -2.001
97.9243     82.537    -4.448
99.3486     82.737    -6.729
100.794     82.837    -8.770
102.260     82.822   -10.592
103.747     82.863   -12.199
105.256     83.058   -13.732
106.787     83.151   -15.340
108.340     83.252   -16.969
109.916     83.437   -18.610
111.515     83.517   -20.228
113.137     83.637   -21.857
114.783     83.799   -23.448
116.452     83.799   -24.877
118.146     83.876   -26.118
119.865     84.062   -27.233
121.608     84.024   -28.518
123.377     84.068   -29.647
125.171     84.124   -30.708
126.992     84.324   -31.752
128.839     84.424   -32.792
130.713     84.550   -33.805
132.615     84.647   -34.802
134.543     84.747   -35.861
136.500     84.815   -36.968
138.486     85.047   -37.971
140.500     85.115   -39.049
142.544     85.151   -40.076
144.617     85.247   -40.848
146.721     85.241   -41.485
148.855     85.357   -42.162
151.020     85.463   -42.822
153.217     85.547   -43.561
155.445     85.666   -44.424
157.706     85.752   -45.331
160.000     85.748   -46.275
162.327     85.744   -47.046
164.688     85.844   -47.462
167.084     85.938   -47.848
169.514     86.025   -48.540
171.980     85.990   -49.387
174.481     86.090   -50.122
177.019     86.172   -50.765
179.594     86.145   -51.363
182.206     86.213   -52.068
184.856     86.267   -52.917
187.545     86.365   -53.697
190.273     86.416   -54.455
193.041     86.482   -55.163
195.849     86.552   -55.883
198.697     86.610   -56.690
201.587     86.694   -57.467
204.520     86.629   -58.168
207.494     86.739   -58.840
210.512     86.781   -59.640
213.574     86.797   -60.596
216.681     86.917   -61.548
219.833     86.946   -62.428
223.030     86.911   -63.186
226.274     86.842   -63.889
229.565     86.830   -64.535
232.905     86.750   -65.084
236.292     86.665   -65.536
239.729     86.645   -65.885
243.216     86.598   -66.111
246.754     86.598   -66.228
250.343     86.516   -66.260
253.984     86.475   -66.188
257.678     86.414   -66.032
261.426     86.413   -65.819
265.229     86.406   -65.573
269.087     86.411   -65.310
273.001     86.410   -65.046
276.972     86.353   -64.792
281.000     86.306   -64.544
285.088     86.305   -64.313
289.234     86.300   -64.112
293.441     86.328   -63.941
297.709     86.402   -63.795
302.040     86.343   -63.667
306.433     86.301   -63.542
310.890     86.298   -63.406
315.412     86.215   -63.247
320.000     86.197   -63.046
324.655     86.196   -62.784
329.377     86.102   -62.437
334.168     85.994   -61.946
339.028     85.872   -61.316
343.959     85.766   -60.532
348.962     85.694   -59.595
354.038     85.615   -58.511
359.188     85.515   -57.262
364.412     85.427   -55.882
369.713     85.393   -54.480
375.090     85.393   -53.125
380.546     85.393   -51.841
386.081     85.446   -50.728
391.697     85.492   -49.781
397.394     85.491   -49.006
403.175     85.491   -48.409
409.039     85.432   -47.875
414.989     85.390   -47.313
421.025     85.337   -46.635
427.149     85.189   -45.751
433.362     85.029   -44.596
439.665     84.865   -43.061
446.060     84.787   -41.265
452.548     84.697   -39.325
459.131     84.685   -37.349
465.809     84.595   -35.510
472.584     84.672   -33.979
479.458     84.682   -32.779
486.432     84.681   -31.810
493.507     84.619   -30.933
500.686     84.468   -29.945
507.968     84.281   -28.670
515.357     84.085   -26.987
522.853     83.939   -24.842
530.458     83.795   -22.378
538.174     83.649   -19.934
546.002     83.566   -17.801
553.943     83.554   -16.112
562.001     83.433   -14.872
570.175     83.252   -13.877
578.469     82.927   -12.734
586.883     82.509   -10.984
595.419     82.018    -8.218
604.080     81.555    -4.160
612.866     81.211     1.017
621.780     81.041     6.713
630.824     81.082    12.180
640.000     81.213    16.870
649.309     81.355    20.811
658.753     81.480    24.340
668.335     81.608    27.734
678.056     81.736    30.861
687.919     81.892    33.579
697.925     82.032    35.688
708.077     82.097    37.181
718.376     82.044    38.475
728.825     81.766    40.241
739.426     81.336    43.271
750.181     80.909    48.151
761.093     80.618    54.722
772.163     80.610    61.821
783.394     80.919    68.282
794.789     81.320    73.519
806.349     81.702    77.479
818.078     82.019    80.662
829.977     82.276    83.396
842.050     82.448    85.829
854.298     82.515    88.128
866.724     82.459    90.578
879.330     82.320    93.669
892.120     82.114    98.031
905.097     81.941   104.073
918.262     81.980   110.794
931.618     82.246   116.940
945.169     82.586   121.789
958.917     82.873   125.400
972.864     83.020   128.410
987.015     83.113   131.479
1001.37     83.191   134.884
1015.94     83.341   138.249
1030.71     83.502   141.016
1045.71     83.653   143.017
1060.92     83.691   144.495
1076.35     83.627   145.848
1092.00     83.557   147.297
1107.89     83.466   148.657
1124.00     83.353   149.671
1140.35     83.144   150.450
1156.94     82.888   151.272
1173.77     82.638   152.055
1190.84     82.374   152.353
1208.16     81.974   152.132
1225.73     81.313   152.249
1243.56     80.572   153.538
1261.65     79.992   155.271
1280.00     79.491   155.821
1298.62     78.731   155.383
1317.51     77.563   156.330
1336.67     76.252   160.281
1356.11     75.161   165.682
1375.84     74.094   171.571
1395.85     73.002  -179.374
1416.15     72.519  -166.770
1436.75     72.798  -154.673
1457.65     73.304  -144.351
1478.85     74.072  -135.262
1500.36     75.038  -129.434
1522.19     75.778  -126.528
1544.33     76.267  -123.627
1566.79     76.780  -120.378
1589.58     77.304  -118.640
1612.70     77.576  -117.874
1636.16     77.734  -115.939
1659.95     78.009  -113.082
1684.10     78.386  -111.114
1708.60     78.745  -110.236
1733.45     79.013  -110.020
1758.66     79.129  -110.224
1784.24     79.035  -109.464
1810.19     79.199  -107.811
1836.52     79.418  -107.832
1863.24     79.418  -108.790
1890.34     79.370  -108.213
1917.83     79.597  -108.006
1945.73     79.747  -109.691
1974.03     79.748  -111.904
2002.74     79.632  -114.269
2031.87     79.396  -116.118
2061.43     79.229  -117.667
2091.41     79.062  -119.848
2121.83     78.816  -121.477
2152.69     78.745  -123.147
2184.01     78.842  -125.512
2215.77     79.044  -128.996
2248.00     79.191  -134.557
2280.70     79.130  -139.966
2313.87     79.182  -145.314
2347.53     79.154  -151.430
2381.68     79.047  -156.389
2416.32     79.260  -161.239
2451.46     79.473  -168.096
2487.12     79.464  -175.122
2523.30     79.311   179.801
2560.00     79.279   175.601
2597.24     79.447   170.466
2635.01     79.516   165.042
2673.34     79.520   159.729
2712.23     79.300   154.587
2751.68     78.866   151.392
2791.70     78.850   149.834
2832.31     79.068   146.820
2873.50     78.864   142.755
2915.30     78.671   140.242
2957.70     78.435   137.072
3000.72     78.071   135.376
3044.37     77.800   133.667
3088.65     77.616   131.660
3133.58     77.381   130.442
3179.16     77.182   128.876
3225.40     76.774   126.661
3272.31     76.464   125.622
3319.91     76.100   125.797
3368.20     75.910   126.607
3417.19     76.013   126.278
3466.89     76.006   125.170
3517.32     75.935   124.601
3568.48     75.942   124.439
3620.39     76.119   123.979
3673.05     76.369   122.019
3726.47     76.349   120.081
3780.67     76.367   118.919
3835.67     76.447   117.620
3891.46     76.485   116.513
3948.06     76.556   115.061
4005.49     76.644   113.412
4063.75     76.713   111.904
4122.86     76.765   109.671
4182.82     76.725   106.693
4243.66     76.644   104.767
4305.39     76.510   102.168
4368.01     76.208    99.645
4431.55     75.801    98.009
4496.01     75.657    97.669
4561.40     75.511    95.939
4627.75     75.269    95.055
4695.06     75.167    93.840
4763.35     75.059    91.267
4832.64     74.623    89.849
4902.93     74.332    89.542
4974.24     74.089    88.261
5046.60     73.745    87.473
5120.00     73.564    87.444
5194.47     73.321    87.387
5270.03     72.836    86.718
5346.68     72.382    85.777
5424.45     71.752    85.215
5503.35     71.552    87.891
5583.40     71.362    92.075
5664.61     70.936    94.854
5747.01     70.745    95.790
5830.60     71.103    93.453
5915.41     70.901    94.756
6001.45     70.746    97.723
6088.74     70.852    98.181
6177.30     70.844    98.898
6267.15     71.079    98.158
6358.31     70.858    97.114
6450.80     70.860    97.550
6544.62     70.752    96.695
6639.82     70.567    96.276
6736.40     70.462    95.345
6834.38     70.210    93.761
6933.79     69.735    93.384
7034.64     69.318    93.518
7136.96     68.773    94.555
7240.77     68.435    97.496
7346.09     68.252    98.907
7452.94     67.877   100.785
7561.35     67.608   102.820
7671.33     67.385   106.410
7782.91     67.334   108.813
7896.12     67.226   111.709
8010.97     67.473   113.729
8127.49     67.484   114.088
8245.71     67.529   113.907
8365.65     67.178   113.192
8487.33     66.728   113.501
8610.78     65.930   115.950
8736.03     65.334   122.444
8863.09     65.461   130.857
8992.01     66.112   135.212
9122.80     66.574   136.391
9255.50     66.810   137.710
9390.12     67.000   138.115
9526.70     67.056   138.553
9665.27     66.926   139.196
9805.86     66.669   140.750
9948.49     66.394   143.568
10093.2     66.245   147.351
10240.0     66.304   151.475
10388.9     66.402   154.839
10540.1     66.460   157.681
10693.4     66.491   160.517
10848.9     66.772   163.813
11006.7     66.952   165.634
11166.8     67.030   166.780
11329.2     66.748   167.471
11494.0     66.170   170.693
11661.2     65.875  -179.398
11830.8     67.856  -169.771
12002.9     68.933  -178.285
12177.5     67.952   177.766
12354.6     67.254  -176.955
12534.3     67.414  -171.149
12716.6     67.920  -168.032
12901.6     68.185  -167.297
13089.2     68.238  -166.226
13279.6     68.332  -164.105
13472.8     68.625  -162.632
13668.8     68.919  -162.996
13867.6     68.915  -163.673
14069.3     68.782  -161.914
14273.9     69.295  -159.911
14481.5     69.577  -163.125
14692.2     69.563  -165.414
14905.9     69.451  -171.334
15122.7     67.938  -172.950
15342.7     67.342  -166.249
15565.8     67.468  -164.241
15792.2     67.137  -163.817
16021.9     66.686  -160.799
16255.0     66.623  -156.929
16491.4     66.946  -155.850
16731.3     66.613  -159.385
16974.7     64.973  -153.004
17221.6     65.333  -139.867
17472.1     66.635  -135.902
17726.2     67.742  -139.356
17984.0     67.952  -148.505
18245.6     66.807  -161.862
18511.0     62.851  -153.887
18780.2     62.545  -113.730
19053.4     65.952  -108.881
19330.5     67.704  -121.312
19611.7     67.309  -138.011
19897.0     65.083  -144.168
20186.4     65.065  -142.638
20480.0     65.047  -141.106
20777.9     65.029  -139.574
21080.1     65.011  -138.043
21386.7     64.993  -136.512
21697.8     64.976  -134.982
22013.4     64.958  -133.451
22333.6     64.940  -131.922
22658.4     64.923  -130.392
22988.0     64.905  -128.863
23322.4     64.888  -127.334
23661.6     64.871  -125.805
24005.8     64.853  -124.277
24355.0     64.836  -122.749
24709.2     64.819  -121.221
25068.6     64.802  -119.694
25433.2     64.784  -118.166
25803.2     64.767  -116.639
26178.5     64.750  -115.113
26559.3     64.733  -113.586
26945.6     64.716  -112.060
27337.5     64.699  -110.534
27735.2     64.682  -109.009
28138.6     64.665  -107.483
28547.9     64.648  -105.958
28963.1     64.631  -104.433
29384.4     64.615  -102.908
29811.8     64.598  -101.384
30245.4     64.581   -99.859
30685.3     64.564   -98.335
31131.7     64.547   -96.811
31584.5     64.531   -95.287
32043.9     64.514   -93.764
32510.0     64.497   -92.241
32982.8     64.480   -90.717
33462.6     64.464   -89.194
33949.3     64.447   -87.672
34443.1     64.430   -86.149
34944.1     64.414   -84.626
35452.4     64.397   -83.104
35968.0     64.380   -81.582
36491.2     64.364   -80.060
37022.0     64.347   -78.538
37560.5     64.330   -77.016
38106.8     64.314   -75.495
38661.1     64.297   -73.973
39223.4     64.280   -72.452
39793.9     64.264   -70.931
