Freq[Hz]     dBSPL  Phase[Deg]
5.00000    -37.546   137.797
5.07273    -36.723   138.754
5.14651    -36.001   139.726
5.22137    -35.180   140.717
5.29732    -34.459   141.726
5.37437    -33.638   142.757
5.45254    -32.817   143.804
5.53185    -32.097   144.873
5.61231    -31.278   145.961
5.69394    -30.559   147.070
5.77676    -29.740   148.203
5.86079    -28.921   149.356
5.94604    -28.204   150.531
6.03252    -27.387   151.731
6.12027    -26.670   152.956
6.20929    -25.854   154.203
6.29961    -25.039   155.477
6.39124    -24.323   156.775
6.48420    -23.508   158.101
6.57851    -22.794   159.456
6.67420    -21.981   160.838
6.77128    -21.168   162.248
6.86977    -20.455   163.688
6.96969    -19.642   165.160
7.07107    -18.932   166.662
7.17392    -18.121   168.196
7.27827    -17.310   169.763
7.38413    -16.600   171.365
7.49154    -15.792   173.000
7.60050    -15.083   174.672
7.71105    -14.275   176.380
7.82321    -13.467   178.125
7.93701    -12.760   179.909
8.05245    -11.955  -178.268
8.16958    -11.250  -176.405
8.28841    -10.445  -174.502
8.40896     -9.640  -172.555
8.53128     -8.938  -170.566
8.65537     -8.135  -168.535
8.78126     -7.432  -166.460
8.90899     -6.631  -164.339
9.03857     -5.831  -162.174
9.17004     -5.131  -159.964
9.30342     -4.332  -157.705
9.43874     -3.633  -155.403
9.57603     -2.836  -153.052
9.71532     -2.039  -150.655
9.85663     -1.342  -148.213
10.0000     -0.547  -145.723
10.1455      0.147  -143.191
10.2930      0.941  -140.609
10.4427      1.735  -137.985
10.5946      2.427  -135.317
10.7487      3.218  -132.609
10.9051      3.909  -129.862
11.0637      4.699  -127.073
11.2246      5.488  -124.248
11.3879      6.176  -121.390
11.5535      6.963  -118.496
11.7216      7.650  -115.574
11.8921      8.436  -112.623
12.0650      9.221  -109.646
12.2405      9.904  -106.647
12.4186     10.687  -103.630
12.5992     11.369  -100.594
12.7825     12.151   -97.545
12.9684     12.930   -94.484
13.1570     13.610   -91.412
13.3484     14.389   -88.335
13.5426     15.067   -85.257
13.7395     15.842   -82.169
13.9394     16.618   -79.088
14.1421     17.293   -76.006
14.3478     18.067   -72.928
14.5565     18.739   -69.858
14.7683     19.512   -66.795
14.9831     20.283   -63.737
15.2010     20.953   -60.689
15.4221     21.721   -57.649
15.6464     22.389   -54.621
15.8740     23.157   -51.603
16.1049     23.923   -48.595
16.3392     24.587   -45.600
16.5768     25.352   -42.611
16.8179     26.115   -39.634
17.0626     26.777   -36.669
17.3107     27.539   -33.708
17.5625     28.198   -30.759
17.8180     28.957   -27.818
18.0771     29.715   -24.882
18.3401     30.373   -21.954
18.6068     31.128   -19.031
18.8775     31.783   -16.113
19.1521     32.537   -13.199
19.4306     33.291   -10.287
19.7133     33.942    -7.377
20.0000     34.693    -4.467
20.2909     35.343    -1.558
20.5860     35.765     1.860
20.8855     36.389     6.998
21.1893     37.276    12.267
21.4975     38.265    16.253
21.8102     39.356    18.674
22.1274     40.250    19.822
22.4492     40.902    20.377
22.7758     41.400    21.301
23.1071     41.788    23.619
23.4432     42.073    27.294
23.7841     42.740    32.194
24.1301     43.584    36.212
24.4811     44.521    38.579
24.8372     45.260    39.495
25.1984     45.847    39.752
25.5649     46.266    40.404
25.9368     46.567    42.023
26.3141     46.898    44.262
26.6968     47.389    46.604
27.0851     47.799    48.314
27.4791     48.211    49.346
27.8788     48.482    50.634
28.2843     48.780    52.645
28.6957     49.083    55.247
29.1131     49.567    57.531
29.5365     50.150    58.908
29.9661     50.614    59.434
30.4020     51.060    59.672
30.8442     51.355    60.124
31.2929     51.675    60.790
31.7480     52.023    61.375
32.2098     52.426    61.733
32.6783     52.678    62.153
33.1536     53.025    62.889
33.6359     53.422    63.808
34.1251     53.738    64.465
34.6215     54.251    64.712
35.1250     54.581    64.837
35.6359     54.960    65.201
36.1543     55.387    65.685
36.6802     55.713    65.894
37.2137     56.199    65.662
37.7550     56.611    65.377
38.3041     56.932    65.460
38.8613     57.304    65.796
39.4265     57.688    65.995
40.0000     57.949    65.926
40.5818     58.305    65.787
41.1721     58.796    65.683
41.7710     59.179    65.491
42.3785     59.486    65.176
42.9949     59.790    65.063
43.6203     60.075    65.220
44.2548     60.528    65.314
44.8985     60.886    64.998
45.5515     61.325    64.453
46.2141     61.745    64.039
46.8863     62.104    63.841
47.5683     62.447    63.523
48.2602     62.930    62.930
48.9621     63.211    62.341
49.6743     63.629    61.921
50.3968     64.072    61.524
51.1299     64.437    61.025
51.8736     64.937    60.477
52.6281     65.349    59.861
53.3936     65.760    59.116
54.1702     66.083    58.377
54.9581     66.522    57.699
55.7575     67.053    56.734
56.5685     67.364    55.496
57.3914     67.764    54.542
58.2261     68.206    53.841
59.0730     68.647    52.721
59.9323     69.005    51.348
60.8040     69.447    50.144
61.6884     69.847    48.888
62.5857     70.384    47.616
63.4960     70.730    46.382
64.4196     71.230    45.046
65.3566     71.683    43.583
66.3073     72.032    42.011
67.2717     72.570    40.454
68.2502     72.933    38.795
69.2429     73.411    36.993
70.2501     73.844    35.186
71.2719     74.251    33.269
72.3086     74.650    31.254
73.3603     75.190    29.204
74.4274     75.530    27.072
75.5099     75.881    24.859
76.6083     76.350    22.501
77.7226     76.746    20.113
78.8531     77.108    17.760
80.0000     77.425    15.370
81.1636     77.747    12.933
82.3442     78.146    10.492
83.5419     78.473     8.116
84.7570     78.702     5.722
85.9899     79.024     3.339
87.2406     79.353     0.922
88.5096     79.550    -1.545
89.7970     79.781    -4.012
91.1031     80.090    -6.457
92.4282     80.376    -9.014
93.7726     80.593   -11.662
95.1366     80.786   -14.297
96.5204     80.993   -16.965
97.9243     81.097   -19.608
99.3486     81.266   -22.088
100.794     81.437   -24.330
102.260     81.446   -26.356
103.747     81.563   -28.174
105.256     81.758   -29.923
106.787     81.851   -31.754
108.340     81.952   -33.617
109.916     82.237   -35.499
111.515     82.317   -37.372
113.137     82.437   -39.268
114.783     82.599   -41.142
116.452     82.599   -42.870
118.146     82.776   -44.429
119.865     82.962   -45.880
121.608     82.924   -47.523
123.377     82.968   -49.031
125.171     83.124   -50.496
126.992     83.224   -51.968
128.839     83.324   -53.458
130.713     83.450   -54.947
132.615     83.647   -56.444
134.543     83.747   -58.035
136.500     83.775   -59.698
138.486     84.047   -61.216
140.500     84.115   -62.865
142.544     84.068   -64.515
144.617     84.147   -65.853
146.721     84.207   -67.045
148.855     84.257   -68.310
151.020     84.330   -69.533
153.217     84.380   -70.802
155.445     84.466   -72.160
157.706     84.502   -73.521
160.000     84.448   -74.908
162.327     84.410   -76.071
164.688     84.461   -76.802
167.084     84.510   -77.481
169.514     84.554   -78.438
171.980     84.476   -79.502
174.481     84.540   -80.403
177.019     84.586   -81.181
179.594     84.559   -81.900
182.206     84.600   -82.715
184.856     84.639   -83.663
187.545     84.708   -84.532
190.273     84.778   -85.390
193.041     84.854   -86.209
195.849     84.952   -87.057
198.697     85.035   -88.027
201.587     85.107   -88.998
204.520     85.116   -89.928
207.494     85.227   -90.869
210.512     85.337   -92.002
213.574     85.422   -93.341
216.681     85.542   -94.704
219.833     85.646   -96.075
223.030     85.644   -97.416
226.274     85.642   -98.764
229.565     85.641  -100.119
232.905     85.650  -101.440
236.292     85.598  -102.720
239.729     85.645  -104.003
243.216     85.598  -105.212
246.754     85.608  -106.353
250.343     85.516  -107.492
253.984     85.445  -108.542
257.678     85.354  -109.505
261.426     85.258  -110.441
265.229     85.206  -111.300
269.087     85.120  -112.076
273.001     85.000  -112.767
276.972     84.871  -113.368
281.000     84.752  -113.900
285.088     84.630  -114.347
289.234     84.491  -114.687
293.441     84.403  -114.923
297.709     84.357  -115.068
302.040     84.259  -115.135
306.433     84.176  -115.141
310.890     84.098  -115.099
315.412     83.999  -115.033
320.000     83.997  -114.960
324.655     83.980  -114.893
329.377     83.894  -114.837
334.168     83.808  -114.782
339.028     83.725  -114.717
343.959     83.630  -114.618
348.962     83.594  -114.456
354.038     83.494  -114.201
359.188     83.379  -113.818
364.412     83.273  -113.282
369.713     83.193  -112.623
375.090     83.120  -111.877
380.546     83.166  -111.081
386.081     83.192  -110.344
391.697     83.279  -109.728
397.394     83.323  -109.315
403.175     83.391  -109.164
409.039     83.467  -109.259
414.989     83.534  -109.566
421.025     83.542  -110.003
427.149     83.470  -110.458
433.362     83.347  -110.818
439.665     83.204  -110.979
446.060     83.069  -110.838
452.548     82.936  -110.373
459.131     82.807  -109.627
465.809     82.705  -108.736
472.584     82.683  -107.927
479.458     82.766  -107.396
486.432     82.854  -107.253
493.507     82.879  -107.537
500.686     82.798  -108.160
507.968     82.656  -108.905
515.357     82.440  -109.504
522.853     82.168  -109.680
530.458     81.790  -109.171
538.174     81.373  -107.872
546.002     81.066  -105.923
553.943     80.886  -103.619
562.001     80.805  -101.415
570.175     80.848   -99.687
578.469     80.853   -98.541
586.883     80.761   -97.801
595.419     80.639   -97.072
604.080     80.442   -95.934
612.866     80.236   -94.132
621.780     80.125   -91.733
630.824     80.118   -89.191
640.000     80.205   -87.158
649.309     80.359   -85.997
658.753     80.488   -85.663
668.335     80.549   -85.804
678.056     80.448   -85.897
687.919     80.295   -85.484
697.925     80.147   -84.436
708.077     80.097   -83.065
718.376     80.151   -81.893
728.825     80.135   -81.340
739.426     80.094   -81.382
750.181     79.999   -81.543
761.093     79.714   -81.136
772.163     79.414   -79.722
783.394     79.232   -77.465
794.789     79.233   -75.178
806.349     79.302   -73.866
818.078     79.343   -73.798
829.977     79.219   -74.475
842.050     79.004   -75.045
854.298     78.646   -74.823
866.724     78.304   -73.749
879.330     78.049   -72.501
892.120     77.820   -71.770
905.097     77.439   -71.598
918.262     76.807   -71.753
931.618     75.851   -70.785
945.169     74.665   -66.536
958.917     73.744   -58.231
972.864     73.584   -48.885
987.015     74.031   -42.944
1001.37     74.434   -41.383
1015.94     74.358   -41.931
1030.71     73.850   -41.607
1045.71     73.165   -38.639
1060.92     72.725   -33.800
1076.35     72.627   -29.830
1092.00     72.655   -27.766
1107.89     72.516   -26.335
1124.00     72.296   -24.509
1140.35     72.137   -23.433
1156.94     71.849   -24.766
1173.77     71.033   -27.238
1190.84     69.551   -25.844
1208.16     68.138   -16.161
1225.73     68.015    -3.223
1243.56     68.744     3.924
1261.65     69.198     6.737
1280.00     69.495     9.837
1298.62     70.068    12.059
1317.51     70.621    11.043
1336.67     70.796     9.062
1356.11     70.870     9.156
1375.84     71.318     9.203
1395.85     71.827     5.576
1416.15     71.841    -0.013
1436.75     71.463    -3.398
1457.65     71.134    -4.596
1478.85     70.839    -5.693
1500.36     70.339    -6.110
1522.19     69.923    -5.043
1544.33     69.831    -5.518
1566.79     69.517    -8.952
1589.58     68.348    -9.926
1612.70     67.043    -1.876
1636.16     67.320    10.089
1659.95     68.484    14.966
1684.10     69.166    14.065
1708.60     69.458    12.866
1733.45     69.723    12.595
1758.66     69.986    13.005
1784.24     70.501    12.781
1810.19     71.061     8.614
1836.52     70.951     2.492
1863.24     70.312     1.186
1890.34     70.296     3.537
1917.83     70.906     2.432
1945.73     71.305    -2.285
1974.03     71.157    -8.434
2002.74     70.484   -12.110
2031.87     70.058   -11.227
2061.43     70.137   -11.601
2091.41     70.073   -13.280
2121.83     69.907   -13.107
2152.69     70.326   -13.127
2184.01     71.122   -16.136
2215.77     71.383   -24.180
2248.00     70.686   -30.836
2280.70     69.936   -31.177
2313.87     69.824   -30.682
2347.53     69.712   -30.984
2381.68     69.865   -29.914
2416.32     70.780   -30.575
2451.46     71.363   -37.630
2487.12     71.155   -45.262
2523.30     70.791   -49.079
2560.00     70.465   -53.439
2597.24     69.665   -57.326
2635.01     68.800   -53.187
2673.34     69.449   -49.080
2712.23     70.519   -52.953
2751.68     70.750   -60.117
2791.70     70.236   -67.750
2832.31     69.411   -72.506
2873.50     67.929   -71.796
2915.30     67.233   -62.318
2957.70     68.354   -57.053
3000.72     69.241   -64.071
3044.37     68.854   -72.987
3088.65     67.543   -77.109
3133.58     65.785   -73.301
3179.16     64.665   -61.240
3225.40     65.665   -53.015
3272.31     66.694   -54.247
3319.91     66.700   -57.711
3368.20     66.090   -61.499
3417.19     64.995   -58.963
3466.89     64.332   -48.203
3517.32     65.032   -42.251
3568.48     65.163   -43.360
3620.39     64.744   -40.755
3673.05     64.391   -35.441
3726.47     64.409   -25.026
3780.67     65.928   -19.517
3835.67     66.395   -24.017
3891.46     65.817   -25.008
3948.06     65.560   -19.631
4005.49     66.126   -14.390
4063.75     66.952   -14.958
4122.86     66.595   -18.419
4182.82     66.280   -14.685
4243.66     66.375   -12.331
4305.39     66.602   -12.705
4368.01     65.785   -13.308
4431.55     65.353    -7.777
4496.01     65.526    -4.249
4561.40     65.788    -7.424
4627.75     64.678    -8.394
4695.06     63.745    -4.367
4763.35     63.110     5.692
4832.64     63.549     8.272
4902.93     62.468     8.607
4974.24     61.386    19.201
5046.60     62.422    32.398
5120.00     62.620    32.620
5194.47     61.580    40.603
5270.03     61.342    56.587
5346.68     61.564    57.104
5424.45     63.509    57.674
5503.35     63.231    55.377
5583.40     62.534    56.108
5664.61     64.469    67.629
5747.01     64.530    70.272
5830.60     61.987    73.603
5915.41     61.433    81.050
6001.45     61.671    80.795
6088.74     60.644    87.816
6177.30     60.025    94.758
6267.15     59.675   100.862
6358.31     59.247   107.158
6450.80     58.293   116.488
6544.62     58.565   127.281
6639.82     58.393   132.381
6736.40     57.762   140.806
6834.38     57.993   152.370
6933.79     58.362   157.880
7034.64     57.998   167.062
7136.96     58.813   176.995
7240.77     58.880   179.917
7346.09     58.915  -170.900
7452.94     59.454  -166.929
7561.35     59.027  -163.758
7671.33     58.661  -156.342
7782.91     58.464  -152.758
7896.12     57.427  -143.628
8010.97     57.602  -135.135
8127.49     56.973  -128.247
8245.71     57.110  -120.306
8365.65     56.537  -114.884
8487.33     56.235  -106.200
8610.78     55.825   -97.350
8736.03     55.699   -83.915
8863.09     56.073   -72.636
8992.01     56.807   -63.575
9122.80     56.733   -60.057
9255.50     56.517   -50.669
9390.12     56.032   -42.221
9526.70     55.726   -32.201
9665.27     54.866   -23.569
9805.86     54.432    -9.635
9948.49     53.872     2.223
10093.2     53.727    14.914
10240.0     53.140    24.657
10388.9     53.159    33.893
10540.1     52.709    44.747
10693.4     52.837    53.870
10848.9     52.067    66.416
11006.7     51.560    77.693
11166.8     51.120    92.967
11329.2     49.890   103.210
11494.0     48.457   117.624
11661.2     46.759   144.407
11830.8     48.274   170.250
12002.9     50.084   179.823
12177.5     50.015  -176.699
12354.6     49.227  -166.558
12534.3     48.569  -153.817
12716.6     48.372  -141.752
12901.6     47.866  -126.497
13089.2     47.223  -110.393
13279.6     46.595   -92.276
13472.8     46.112   -75.461
13668.8     46.463   -57.300
13867.6     46.673   -41.873
14069.3     45.518   -25.831
14273.9     46.468    -1.252
14481.5     47.668     5.243
14692.2     46.411    18.712
14905.9     44.878    37.186
15122.7     44.731    51.977
15342.7     44.376    68.528
15565.8     43.696    93.328
15792.2     44.160   112.811
16021.9     44.609   124.329
16255.0     44.613   133.733
16491.4     44.245   152.915
16731.3     43.525   176.563
16974.7     43.902  -170.181
17221.6     43.006  -152.634
17472.1     41.518  -137.362
17726.2     39.817  -109.951
17984.0     40.300   -82.279
18245.6     41.386   -65.010
18511.0     40.321   -37.569
18780.2     40.018    14.957
19053.4     41.420    31.519
19330.5     43.881    41.394
19611.7     44.581    50.799
19897.0     44.601    58.299
20186.4     44.353    74.848
20480.0     44.105    91.398
20777.9     43.857   107.944
21080.1     43.610   124.496
21386.7     43.362   141.043
21697.8     43.115   157.588
22013.4     42.867   174.135
22333.6     42.620  -169.319
22658.4     42.373  -152.769
22988.0     42.125  -136.225
23322.4     41.878  -119.682
23661.6     41.631  -103.135
24005.8     41.384   -86.594
24355.0     41.137   -70.051
24709.2     40.890   -53.501
25068.6     40.643   -36.957
25433.2     40.396   -20.411
25803.2     40.149    -3.874
26178.5     39.902    12.671
26559.3     39.656    29.212
26945.6     39.409    45.755
27337.5     39.162    62.301
27735.2     38.915    78.837
28138.6     38.669    95.381
28547.9     38.422   111.921
28963.1     38.175   128.467
29384.4     37.929   145.006
29811.8     37.682   161.547
30245.4     37.436   178.090
30685.3     37.189  -165.368
31131.7     36.942  -148.833
31584.5     36.696  -132.291
32043.9     36.449  -115.751
32510.0     36.203   -99.211
32982.8     35.956   -82.668
33462.6     35.710   -66.130
33949.3     35.464   -49.591
34443.1     35.217   -33.050
34944.1     34.971   -16.513
35452.4     34.724     0.024
35968.0     34.478    16.567
36491.2     34.231    33.103
37022.0     33.985    49.642
37560.5     33.739    66.180
38106.8     33.492    82.718
38661.1     33.246    99.256
39223.4     33.000   115.796
39793.9     32.753   132.333
