Freq[Hz]     dBSPL  Phase[Deg]
5.00000      5.596   -85.163
5.07273      6.090   -84.535
5.14651      6.483   -83.895
5.22137      6.975   -83.242
5.29732      7.367   -82.576
5.37437      7.859   -81.894
5.45254      8.351   -81.199
5.53185      8.742   -80.488
5.61231      9.233   -79.763
5.69394      9.622   -79.023
5.77676     10.112   -78.264
5.86079     10.602   -77.490
5.94604     10.991   -76.701
6.03252     11.479   -75.891
6.12027     11.867   -75.062
6.20929     12.353   -74.217
6.29961     12.840   -73.350
6.39124     13.227   -72.466
6.48420     13.713   -71.560
6.57851     14.098   -70.631
6.67420     14.583   -69.681
6.77128     15.066   -68.709
6.86977     15.450   -67.714
6.96969     15.934   -66.693
7.07107     16.316   -65.649
7.17392     16.798   -64.579
7.27827     17.280   -63.484
7.38413     17.660   -62.359
7.49154     18.140   -61.209
7.60050     18.520   -60.029
7.71105     18.999   -58.820
7.82321     19.478   -57.581
7.93701     19.856   -56.311
8.05245     20.332   -55.009
8.16958     20.708   -53.675
8.28841     21.184   -52.308
8.40896     21.660   -50.907
8.53128     22.034   -49.470
8.65537     22.508   -47.998
8.78126     22.881   -46.492
8.90899     23.353   -44.948
9.03857     23.825   -43.368
9.17004     24.196   -41.751
9.30342     24.666   -40.095
9.43874     25.036   -38.403
9.57603     25.504   -36.672
9.71532     25.972   -34.905
9.85663     26.340   -33.101
10.0000     26.806   -31.258
10.1455     27.172   -29.382
10.2930     27.637   -27.466
10.4427     28.101   -25.519
10.5946     28.464   -23.538
10.7487     28.927   -21.525
10.9051     29.289   -19.483
11.0637     29.750   -17.410
11.2246     30.210   -15.312
11.3879     30.569   -13.191
11.5535     31.027   -11.045
11.7216     31.385    -8.881
11.8921     31.842    -6.700
12.0650     32.298    -4.504
12.2405     32.653    -2.298
12.4186     33.106    -0.084
12.5992     33.459     2.135
12.7825     33.912     4.358
12.9684     34.363     6.580
13.1570     34.714     8.800
13.3484     35.164    11.013
13.5426     35.513    13.215
13.7395     35.959    15.412
13.9394     36.406    17.592
14.1421     36.752    19.757
14.3478     37.197    21.905
14.5565     37.541    24.035
14.7683     37.985    26.143
14.9831     38.426    28.230
15.2010     38.767    30.294
15.4221     39.207    32.336
15.6464     39.546    34.350
15.8740     39.985    36.342
16.1049     40.422    38.307
16.3392     40.757    40.245
16.5768     41.193    42.160
16.8179     41.627    44.049
17.0626     41.960    45.912
17.3107     42.393    47.750
17.5625     42.724    49.562
17.8180     43.153    51.350
18.0771     43.582    53.116
18.3401     43.911    54.856
18.6068     44.338    56.575
18.8775     44.664    58.271
19.1521     45.089    59.945
19.4306     45.513    61.600
19.7133     45.836    63.234
20.0000     46.258    64.849
20.2909     46.579    66.445
20.5860     46.679    68.184
20.8855     46.976    71.593
21.1893     47.531    75.225
21.4975     48.113    77.650
21.8102     48.889    78.582
22.1274     49.438    78.306
22.4492     49.711    77.498
22.7758     49.922    77.117
23.1071     49.959    78.182
23.4432     49.966    80.650
23.7841     50.262    84.386
24.1301     50.816    87.280
24.4811     51.466    88.557
24.8372     51.913    88.413
25.1984     52.204    87.636
25.5649     52.323    87.278
25.9368     52.319    87.908
26.3141     52.426    89.178
26.6968     52.619    90.563
27.0851     52.807    91.332
27.4791     52.904    91.435
27.8788     52.944    91.803
28.2843     52.933    92.901
28.6957     53.011    94.597
29.1131     53.267    95.979
29.5365     53.618    96.455
29.9661     53.849    96.083
30.4020     54.057    95.423
30.8442     54.110    94.977
31.2929     54.230    94.743
31.7480     54.384    94.425
32.2098     54.535    93.878
32.6783     54.631    93.389
33.1536     54.772    93.211
33.6359     55.037    93.212
34.1251     55.201    92.946
34.6215     55.497    92.265
35.1250     55.689    91.456
35.6359     55.829    90.881
36.1543     56.115    90.423
36.6802     56.313    89.683
37.2137     56.675    88.499
37.7550     56.902    87.257
38.3041     57.073    86.381
38.8613     57.293    85.756
39.4265     57.588    84.992
40.0000     57.827    83.959
40.5818     58.024    82.857
41.1721     58.396    81.792
41.7710     58.679    80.641
42.3785     58.914    79.372
42.9949     59.190    78.310
43.6203     59.364    77.525
44.2548     59.813    76.687
44.8985     60.086    75.448
45.5515     60.463    73.992
46.2141     60.845    72.680
46.8863     61.107    71.599
47.5683     61.457    70.416
48.2602     61.851    68.977
48.9621     62.211    67.560
49.6743     62.594    66.336
50.3968     63.011    65.156
51.1299     63.399    63.900
51.8736     63.837    62.620
52.6281     64.349    61.301
53.3936     64.680    59.881
54.1702     65.083    58.497
54.9581     65.529    57.204
55.7575     66.053    55.657
56.5685     66.411    53.869
57.3914     66.864    52.399
58.2261     67.405    51.214
59.0730     67.847    49.646
59.9323     68.271    47.858
60.8040     68.747    46.273
61.6884     69.147    44.672
62.5857     69.784    43.087
63.4960     70.130    41.574
64.4196     70.630    39.991
65.3566     71.130    38.315
66.3073     71.632    36.559
67.2717     72.170    34.849
68.2502     72.570    33.065
69.2429     73.111    31.166
70.2501     73.544    29.288
71.2719     74.051    27.324
72.3086     74.450    25.285
73.3603     74.990    23.231
74.4274     75.430    21.114
75.5099     75.781    18.933
76.6083     76.269    16.622
77.7226     76.669    14.293
78.8531     77.076    12.010
80.0000     77.425     9.698
81.1636     77.747     7.347
82.3442     78.146     4.996
83.5419     78.485     2.712
84.7570     78.802     0.411
85.9899     79.043    -1.881
87.2406     79.375    -4.209
88.5096     79.581    -6.592
89.7970     79.881    -8.981
91.1031     80.113   -11.356
92.4282     80.437   -13.851
93.7726     80.693   -16.447
95.1366     80.807   -19.041
96.5204     81.037   -21.678
97.9243     81.137   -24.302
99.3486     81.337   -26.775
100.794     81.437   -29.023
102.260     81.446   -31.067
103.747     81.563   -32.915
105.256     81.758   -34.706
106.787     81.851   -36.591
108.340     81.952   -38.519
109.916     82.151   -40.476
111.515     82.317   -42.433
113.137     82.431   -44.421
114.783     82.499   -46.394
116.452     82.599   -48.227
118.146     82.776   -49.896
119.865     82.862   -51.461
121.608     82.924   -53.219
123.377     82.968   -54.844
125.171     83.024   -56.424
126.992     83.224   -58.011
128.839     83.324   -59.612
130.713     83.450   -61.208
132.615     83.547   -62.807
134.543     83.647   -64.494
136.500     83.775   -66.249
138.486     83.967   -67.842
140.500     84.115   -69.564
142.544     84.068   -71.284
144.617     84.147   -72.676
146.721     84.141   -73.914
148.855     84.157   -75.220
151.020     84.263   -76.475
153.217     84.347   -77.769
155.445     84.366   -79.144
157.706     84.419   -80.518
160.000     84.348   -81.913
162.327     84.310   -83.081
164.688     84.327   -83.817
167.084     84.381   -84.502
169.514     84.411   -85.469
171.980     84.333   -86.549
174.481     84.390   -87.471
177.019     84.429   -88.279
179.594     84.373   -89.041
182.206     84.413   -89.915
184.856     84.453   -90.937
187.545     84.537   -91.888
190.273     84.591   -92.851
193.041     84.682   -93.789
195.849     84.764   -94.772
198.697     84.860   -95.902
201.587     84.944   -97.049
204.520     84.941   -98.169
207.494     85.039   -99.313
210.512     85.181  -100.675
213.574     85.247  -102.254
216.681     85.367  -103.851
219.833     85.446  -105.477
223.030     85.444  -107.092
226.274     85.442  -108.715
229.565     85.441  -110.341
232.905     85.450  -111.925
236.292     85.343  -113.458
239.729     85.345  -114.988
243.216     85.298  -116.423
246.754     85.248  -117.762
250.343     85.156  -119.077
253.984     85.045  -120.266
257.678     84.934  -121.330
261.426     84.785  -122.332
265.229     84.706  -123.219
269.087     84.592  -123.990
273.001     84.460  -124.653
276.972     84.326  -125.212
281.000     84.170  -125.696
285.088     84.039  -126.104
289.234     83.909  -126.432
293.441     83.803  -126.696
297.709     83.757  -126.917
302.040     83.659  -127.113
306.433     83.559  -127.310
310.890     83.459  -127.522
315.412     83.382  -127.750
320.000     83.297  -127.997
324.655     83.271  -128.257
329.377     83.171  -128.517
334.168     83.051  -128.773
339.028     82.925  -128.974
343.959     82.802  -129.088
348.962     82.694  -129.085
354.038     82.594  -128.943
359.188     82.458  -128.640
364.412     82.334  -128.169
369.713     82.222  -127.581
375.090     82.193  -126.934
380.546     82.193  -126.285
386.081     82.192  -125.746
391.697     82.192  -125.382
397.394     82.191  -125.264
403.175     82.231  -125.415
409.039     82.291  -125.819
414.989     82.290  -126.425
421.025     82.231  -127.131
427.149     82.126  -127.825
433.362     81.971  -128.397
439.665     81.804  -128.772
446.060     81.652  -128.859
452.548     81.508  -128.664
459.131     81.335  -128.258
465.809     81.205  -127.779
472.584     81.100  -127.420
479.458     81.082  -127.336
486.432     81.012  -127.603
493.507     80.879  -128.221
500.686     80.678  -129.063
507.968     80.396  -129.880
515.357     80.045  -130.390
522.853     79.668  -130.313
530.458     79.209  -129.418
538.174     78.730  -127.702
546.002     78.375  -125.426
553.943     78.145  -122.986
562.001     78.010  -120.874
570.175     77.935  -119.414
578.469     77.822  -118.595
586.883     77.661  -118.110
595.419     77.426  -117.481
604.080     77.142  -116.267
612.866     76.891  -114.289
621.780     76.729  -111.784
630.824     76.718  -109.373
640.000     76.709  -107.744
649.309     76.767  -107.142
658.753     76.692  -107.339
668.335     76.523  -107.784
678.056     76.236  -107.796
687.919     75.903  -106.931
697.925     75.625  -105.342
708.077     75.497  -103.845
718.376     75.469  -103.362
728.825     75.331  -104.375
739.426     75.005  -106.526
750.181     74.413  -108.705
761.093     73.471  -109.287
772.163     72.367  -106.746
783.394     71.477  -100.856
794.789     71.133   -93.889
806.349     71.235   -89.516
818.078     71.404   -88.881
829.977     71.288   -90.565
842.050     70.719   -92.371
854.298     69.694   -92.470
866.724     68.318   -90.029
879.330     66.697   -85.379
892.120     64.911   -79.051
905.097     62.858   -69.151
918.262     61.010   -50.811
931.618     61.284   -25.321
945.169     63.765    -7.581
958.917     66.073    -3.409
972.864     67.218    -6.931
987.015     67.178   -12.499
1001.37     66.091   -14.841
1015.94     64.633    -8.083
1030.71     64.400     6.309
1045.71     65.629    16.831
1060.92     66.689    18.374
1076.35     66.691    15.891
1092.00     65.787    15.953
1107.89     64.759    23.004
1124.00     64.730    34.634
1140.35     65.633    44.187
1156.94     66.690    50.291
1173.77     67.779    54.140
1190.84     68.919    54.929
1208.16     69.806    52.116
1225.73     70.087    47.667
1243.56     69.925    44.757
1261.65     69.830    44.708
1280.00     70.151    45.239
1298.62     70.583    43.997
1317.51     70.784    41.476
1336.67     70.837    38.589
1356.11     70.933    34.562
1375.84     70.776    29.028
1395.85     70.180    24.305
1416.15     69.480    23.161
1436.75     69.298    24.239
1457.65     69.373    23.718
1478.85     69.168    22.295
1500.36     68.673    22.455
1522.19     68.208    23.963
1544.33     67.713    26.952
1566.79     67.570    32.856
1589.58     68.423    37.283
1612.70     69.470    35.125
1636.16     69.769    29.944
1659.95     69.444    27.945
1684.10     69.525    29.353
1708.60     70.210    28.177
1733.45     70.614    22.449
1758.66     70.409    15.509
1784.24     69.720    10.885
1810.19     68.958    10.436
1836.52     68.726    12.895
1863.24     69.203    12.747
1890.34     69.327     8.322
1917.83     68.830     4.749
1945.73     68.666     4.167
1974.03     68.848     2.553
2002.74     68.949    -0.996
2031.87     68.917    -4.400
2061.43     68.759    -7.720
2091.41     68.635   -11.722
2121.83     68.362   -15.127
2152.69     68.025   -16.045
2184.01     68.269   -17.284
2215.77     68.618   -21.068
2248.00     68.864   -25.174
2280.70     69.103   -30.789
2313.87     69.038   -38.013
2347.53     68.617   -43.651
2381.68     68.106   -46.571
2416.32     67.814   -49.195
2451.46     67.549   -52.692
2487.12     67.597   -54.329
2523.30     68.169   -57.265
2560.00     68.237   -64.061
2597.24     67.565   -73.827
2635.01     66.639   -79.427
2673.34     65.426   -79.532
2712.23     64.632   -73.592
2751.68     65.124   -68.724
2791.70     65.433   -71.429
2832.31     65.302   -75.307
2873.50     65.264   -78.834
2915.30     65.084   -81.735
2957.70     64.298   -80.940
3000.72     64.220   -75.496
3044.37     64.869   -75.659
3088.65     64.791   -81.350
3133.58     64.048   -87.346
3179.16     62.900   -90.231
3225.40     61.498   -83.881
3272.31     61.238   -80.746
3319.91     60.844   -79.287
3368.20     60.616   -80.789
3417.19     58.937   -80.498
3466.89     56.922   -68.884
3517.32     56.017   -53.204
3568.48     57.319   -31.328
3620.39     59.402   -29.061
3673.05     59.134   -31.588
3726.47     59.360   -23.358
3780.67     60.163   -17.172
3835.67     60.858   -12.573
3891.46     61.530    -9.947
3948.06     62.096   -10.590
4005.49     62.363    -8.071
4063.75     62.681    -6.036
4122.86     62.942    -4.076
4182.82     63.446    -2.506
4243.66     63.744    -1.959
4305.39     64.026    -1.171
4368.01     63.862     1.896
4431.55     64.440     5.113
4496.01     64.844     3.378
4561.40     64.667     0.693
4627.75     64.258     1.420
4695.06     64.143     4.971
4763.35     64.231     6.053
4832.64     63.794     7.242
4902.93     63.123    10.641
4974.24     62.844    18.093
5046.60     63.033    21.866
5120.00     62.886    22.743
5194.47     62.658    27.344
5270.03     63.129    29.833
5346.68     63.534    31.019
5424.45     63.463    37.339
5503.35     62.263    45.449
5583.40     63.358    50.675
5664.61     63.227    54.854
5747.01     61.777    51.402
5830.60     61.188    50.632
5915.41     60.861    57.736
6001.45     60.305    59.815
6088.74     59.704    64.148
6177.30     58.948    70.431
6267.15     58.466    80.263
6358.31     58.513    86.227
6450.80     58.188    91.312
6544.62     57.990    98.736
6639.82     57.849   108.256
6736.40     57.791   114.090
6834.38     57.503   119.321
6933.79     57.277   124.599
7034.64     57.125   130.107
7136.96     56.985   137.442
7240.77     56.569   145.450
7346.09     56.271   155.943
7452.94     56.880   164.199
7561.35     56.932   170.273
7671.33     57.071   174.968
7782.91     57.195   179.461
7896.12     56.849  -177.154
8010.97     56.559  -175.707
8127.49     55.634  -172.289
8245.71     54.453  -166.335
8365.65     53.453  -157.898
8487.33     52.155  -147.079
8610.78     51.345  -130.206
8736.03     50.593  -112.891
8863.09     51.299   -91.550
8992.01     52.581   -78.160
9122.80     53.375   -71.548
9255.50     53.872   -63.958
9390.12     53.972   -52.502
9526.70     54.555   -44.200
9665.27     55.200   -36.432
9805.86     55.462   -32.985
9948.49     55.239   -27.865
10093.2     54.933   -23.475
10240.0     54.407   -16.823
10388.9     53.297   -12.873
10540.1     51.893    -5.339
10693.4     50.174     7.116
10848.9     49.494    25.114
11006.7     49.265    42.801
11166.8     48.737    53.089
11329.2     47.853    62.699
11494.0     45.606    87.021
11661.2     45.660   122.226
11830.8     49.495   145.542
12002.9     51.154   143.698
12177.5     50.663   146.887
12354.6     49.775   156.597
12534.3     49.027   170.336
12716.6     48.855  -177.097
12901.6     48.687  -164.580
13089.2     48.354  -150.825
13279.6     48.088  -133.972
13472.8     47.748  -120.651
13668.8     47.140  -103.004
13867.6     46.692   -82.409
14069.3     46.865   -62.416
14273.9     48.929   -40.942
14481.5     50.922   -36.211
14692.2     50.482   -32.328
14905.9     49.208   -22.999
15122.7     48.706   -10.524
15342.7     48.670     3.144
15565.8     48.228    12.872
15792.2     47.336    28.713
16021.9     47.075    48.521
16255.0     47.428    60.096
16491.4     46.425    70.147
16731.3     44.063    90.742
16974.7     44.175   120.551
17221.6     44.709   132.295
17472.1     43.330   146.183
17726.2     42.971   171.948
17984.0     43.375  -166.300
18245.6     42.890  -148.776
18511.0     41.175  -114.748
18780.2     43.851   -80.093
19053.4     44.694   -66.343
19330.5     46.770   -47.685
19611.7     48.083   -43.152
19897.0     47.744   -43.860
20186.4     47.594   -28.720
20480.0     47.444   -13.577
20777.9     47.294     1.562
21080.1     47.145    16.704
21386.7     46.996    31.846
21697.8     46.846    46.984
22013.4     46.697    62.123
22333.6     46.548    77.262
22658.4     46.399    92.405
22988.0     46.250   107.541
23322.4     46.101   122.678
23661.6     45.952   137.817
24005.8     45.803   152.953
24355.0     45.654   168.086
24709.2     45.505  -176.771
25068.6     45.356  -161.634
25433.2     45.207  -146.496
25803.2     45.059  -131.366
26178.5     44.910  -116.228
26559.3     44.761  -101.094
26945.6     44.613   -85.957
27337.5     44.464   -70.820
27735.2     44.316   -55.691
28138.6     44.167   -40.554
28547.9     44.019   -25.422
28963.1     43.870   -10.284
29384.4     43.722     4.848
29811.8     43.573    19.982
30245.4     43.425    35.117
30685.3     43.276    50.253
31131.7     43.128    65.382
31584.5     42.980    80.515
32043.9     42.831    95.648
32510.0     42.683   110.780
32982.8     42.535   125.917
33462.6     42.386   141.047
33949.3     42.238   156.179
34443.1     42.090   171.313
34944.1     41.942  -173.558
35452.4     41.793  -158.428
35968.0     41.645  -143.293
36491.2     41.497  -128.164
37022.0     41.349  -113.033
37560.5     41.200   -97.902
38106.8     41.052   -82.771
38661.1     40.904   -67.640
39223.4     40.756   -52.508
39793.9     40.608   -37.378
