Freq[Hz]     dBSPL  Phase[Deg]
5.00000    -33.450   113.109
5.07273    -32.662   114.161
5.14651    -31.976   115.230
5.22137    -31.190   116.319
5.29732    -30.504   117.427
5.37437    -29.719   118.558
5.45254    -28.934   119.708
5.53185    -28.249   120.881
5.61231    -27.465   122.074
5.69394    -26.782   123.290
5.77676    -25.998   124.531
5.86079    -25.215   125.794
5.94604    -24.533   127.080
6.03252    -23.751   128.394
6.12027    -23.070   129.733
6.20929    -22.290   131.097
6.29961    -21.509   132.490
6.39124    -20.829   133.907
6.48420    -20.050   135.355
6.57851    -19.371   136.833
6.67420    -18.593   138.340
6.77128    -17.816   139.877
6.86977    -17.139   141.446
6.96969    -16.361   143.049
7.07107    -15.686   144.683
7.17392    -14.911   146.352
7.27827    -14.135   148.055
7.38413    -13.461   149.796
7.49154    -12.688   151.572
7.60050    -12.014   153.386
7.71105    -11.242   155.239
7.82321    -10.470   157.131
7.93701     -9.798   159.064
8.05245     -9.028   161.038
8.16958     -8.359   163.054
8.28841     -7.589   165.113
8.40896     -6.820   167.217
8.53128     -6.153   169.366
8.65537     -5.385   171.560
8.78126     -4.718   173.799
8.90899     -3.953   176.087
9.03857     -3.187   178.422
9.17004     -2.523  -179.196
9.30342     -1.760  -176.763
9.43874     -1.096  -174.283
9.57603     -0.334  -171.753
9.71532      0.427  -169.174
9.85663      1.089  -166.547
10.0000      1.848  -163.869
10.1455      2.507  -161.146
10.2930      3.266  -158.371
10.4427      4.024  -155.551
10.5946      4.680  -152.685
10.7487      5.437  -149.775
10.9051      6.092  -146.824
11.0637      6.846  -143.827
11.2246      7.600  -140.792
11.3879      8.253  -137.720
11.5535      9.004  -134.608
11.7216      9.656  -131.467
11.8921     10.406  -128.294
12.0650     11.155  -125.089
12.2405     11.803  -121.861
12.4186     12.551  -118.613
12.5992     13.197  -115.339
12.7825     13.943  -112.051
12.9684     14.688  -108.746
13.1570     15.332  -105.427
13.3484     16.075  -102.100
13.5426     16.718   -98.768
13.7395     17.458   -95.422
13.9394     18.198   -92.079
14.1421     18.838   -88.732
14.3478     19.576   -85.385
14.5565     20.213   -82.041
14.7683     20.951   -78.702
14.9831     21.686   -75.363
15.2010     22.320   -72.030
15.4221     23.054   -68.701
15.6464     23.686   -65.379
15.8740     24.418   -62.064
16.1049     25.149   -58.753
16.3392     25.778   -55.452
16.5768     26.507   -52.152
16.8179     27.235   -48.859
17.0626     27.861   -45.574
17.3107     28.587   -42.289
17.5625     29.212   -39.010
17.8180     29.935   -35.735
18.0771     30.657   -32.459
18.3401     31.280   -29.188
18.6068     32.000   -25.915
18.8775     32.619   -22.644
19.1521     33.338   -19.370
19.4306     34.056   -16.093
19.7133     34.672   -12.814
20.0000     35.388    -9.529
20.2909     36.002    -6.239
20.5860     36.365    -2.314
20.8855     36.986     3.358
21.1893     37.790     9.142
21.4975     38.695    13.619
21.8102     39.756    16.507
22.1274     40.608    18.097
22.4492     41.202    19.066
22.7758     41.700    20.379
23.1071     42.088    23.059
23.4432     42.371    27.070
23.7841     42.946    32.277
24.1301     43.784    36.576
24.4811     44.721    39.201
24.8372     45.378    40.353
25.1984     45.947    40.822
25.5649     46.366    41.665
25.9368     46.585    43.454
26.3141     46.983    45.845
26.6968     47.399    48.318
27.0851     47.895    50.142
27.4791     48.211    51.271
27.8788     48.469    52.639
28.2843     48.680    54.713
28.6957     48.983    57.364
29.1131     49.467    59.683
29.5365     50.050    61.080
29.9661     50.514    61.614
30.4020     50.960    61.846
30.8442     51.232    62.280
31.2929     51.520    62.917
31.7480     51.923    63.461
32.2098     52.231    63.768
32.6783     52.555    64.126
33.1536     52.879    64.790
33.6359     53.237    65.629
34.1251     53.538    66.196
34.6215     54.051    66.345
35.1250     54.381    66.363
35.6359     54.691    66.613
36.1543     55.187    66.976
36.6802     55.513    67.056
37.2137     55.937    66.690
37.7550     56.311    66.265
38.3041     56.632    66.202
38.8613     57.004    66.387
39.4265     57.388    66.431
40.0000     57.749    66.203
40.5818     58.105    65.902
41.1721     58.496    65.633
41.7710     58.885    65.272
42.3785     59.286    64.788
42.9949     59.531    64.503
43.6203     59.864    64.488
44.2548     60.313    64.410
44.8985     60.686    63.922
45.5515     61.125    63.207
46.2141     61.564    62.623
46.8863     61.907    62.257
47.5683     62.257    61.775
48.2602     62.751    61.022
48.9621     63.111    60.275
49.6743     63.529    59.703
50.3968     63.972    59.157
51.1299     64.399    58.517
51.8736     64.837    57.833
52.6281     65.349    57.089
53.3936     65.760    56.223
54.1702     66.083    55.371
54.9581     66.622    54.587
55.7575     67.053    53.526
56.5685     67.464    52.201
57.3914     67.864    51.170
58.2261     68.405    50.402
59.0730     68.847    49.224
59.9323     69.205    47.804
60.8040     69.651    46.564
61.6884     70.147    45.282
62.5857     70.684    43.994
63.4960     71.030    42.754
64.4196     71.530    41.422
65.3566     72.030    39.974
66.3073     72.432    38.426
67.2717     72.970    36.901
68.2502     73.370    35.283
69.2429     73.811    33.530
70.2501     74.244    31.778
71.2719     74.751    29.922
72.3086     75.150    27.975
73.3603     75.690    25.996
74.4274     76.030    23.940
75.5099     76.462    21.805
76.6083     76.869    19.526
77.7226     77.269    17.218
78.8531     77.608    14.944
80.0000     77.980    12.632
81.1636     78.284    10.271
82.3442     78.661     7.903
83.5419     78.985     5.594
84.7570     79.302     3.264
85.9899     79.543     0.939
87.2406     79.875    -1.426
88.5096     80.081    -3.848
89.7970     80.361    -6.278
91.1031     80.590    -8.692
92.4282     80.876   -11.226
93.7726     81.099   -13.859
95.1366     81.307   -16.486
96.5204     81.493   -19.154
97.9243     81.597   -21.802
99.3486     81.766   -24.295
100.794     81.937   -26.556
102.260     81.922   -28.607
103.747     81.993   -30.454
105.256     82.200   -32.236
106.787     82.311   -34.103
108.340     82.436   -36.005
109.916     82.637   -37.927
111.515     82.768   -39.840
113.137     82.837   -41.775
114.783     82.999   -43.688
116.452     83.099   -45.451
118.146     83.176   -47.042
119.865     83.362   -48.522
121.608     83.324   -50.189
123.377     83.458   -51.716
125.171     83.524   -53.193
126.992     83.624   -54.672
128.839     83.724   -56.162
130.713     83.850   -57.645
132.615     84.047   -59.129
134.543     84.147   -60.700
136.500     84.175   -62.338
138.486     84.427   -63.829
140.500     84.515   -65.444
142.544     84.468   -67.056
144.617     84.547   -68.357
146.721     84.541   -69.514
148.855     84.657   -70.743
151.020     84.730   -71.935
153.217     84.797   -73.179
155.445     84.866   -74.521
157.706     84.935   -75.876
160.000     84.891   -77.270
162.327     84.860   -78.453
164.688     84.927   -79.217
167.084     85.010   -79.946
169.514     85.054   -80.973
171.980     85.019   -82.125
174.481     85.107   -83.119
177.019     85.172   -84.004
179.594     85.145   -84.848
182.206     85.213   -85.807
184.856     85.253   -86.906
187.545     85.365   -87.920
190.273     85.416   -88.938
193.041     85.496   -89.917
195.849     85.577   -90.924
198.697     85.660   -92.060
201.587     85.707   -93.193
204.520     85.716   -94.278
207.494     85.739   -95.366
210.512     85.859   -96.642
213.574     85.897   -98.108
216.681     85.917   -99.572
219.833     85.946  -101.026
223.030     85.944  -102.422
226.274     85.898  -103.783
229.565     85.841  -105.103
232.905     85.761  -106.332
236.292     85.643  -107.459
239.729     85.645  -108.506
243.216     85.576  -109.404
246.754     85.518  -110.156
250.343     85.416  -110.810
253.984     85.355  -111.310
257.678     85.314  -111.677
261.426     85.231  -111.961
265.229     85.256  -112.172
269.087     85.311  -112.337
273.001     85.310  -112.485
276.972     85.235  -112.642
281.000     85.270  -112.838
285.088     85.305  -113.094
289.234     85.300  -113.414
293.441     85.303  -113.799
297.709     85.302  -114.240
302.040     85.301  -114.723
306.433     85.301  -115.250
310.890     85.259  -115.794
315.412     85.199  -116.300
320.000     85.197  -116.734
324.655     85.130  -117.066
329.377     85.048  -117.269
334.168     84.951  -117.326
339.028     84.864  -117.210
343.959     84.794  -116.928
348.962     84.794  -116.509
354.038     84.744  -115.992
359.188     84.694  -115.407
364.412     84.693  -114.810
369.713     84.693  -114.285
375.090     84.733  -113.881
380.546     84.826  -113.616
386.081     84.892  -113.516
391.697     84.954  -113.565
397.394     84.991  -113.735
403.175     84.991  -113.960
409.039     84.991  -114.186
414.989     84.990  -114.349
421.025     84.989  -114.382
427.149     84.914  -114.254
433.362     84.882  -113.957
439.665     84.788  -113.483
446.060     84.822  -112.905
452.548     84.886  -112.300
459.131     84.885  -111.730
465.809     84.884  -111.266
472.584     84.883  -110.958
479.458     84.982  -110.801
486.432     85.070  -110.750
493.507     85.079  -110.749
500.686     85.078  -110.729
507.968     85.006  -110.640
515.357     84.975  -110.466
522.853     85.006  -110.221
530.458     84.971  -109.952
538.174     84.892  -109.723
546.002     84.866  -109.567
553.943     84.799  -109.464
562.001     84.742  -109.351
570.175     84.648  -109.119
578.469     84.544  -108.654
586.883     84.448  -107.914
595.419     84.365  -106.957
604.080     84.338  -105.922
612.866     84.424  -105.032
621.780     84.481  -104.497
630.824     84.542  -104.400
640.000     84.609  -104.658
649.309     84.559  -105.049
658.753     84.457  -105.322
668.335     84.323  -105.276
678.056     84.186  -104.888
687.919     84.088  -104.340
697.925     84.021  -103.963
708.077     84.051  -104.038
718.376     84.051  -104.581
728.825     83.876  -105.320
739.426     83.581  -105.744
750.181     83.213  -105.274
761.093     82.801  -103.559
772.163     82.507  -100.841
783.394     82.441   -97.863
794.789     82.501   -95.495
806.349     82.593   -94.232
818.078     82.610   -93.805
829.977     82.494   -93.620
842.050     82.227   -93.131
854.298     81.919   -92.076
866.724     81.609   -90.508
879.330     81.326   -88.576
892.120     81.048   -86.073
905.097     80.730   -82.436
918.262     80.496   -77.928
931.618     80.451   -73.173
945.169     80.584   -69.124
958.917     80.810   -66.538
972.864     80.920   -65.272
987.015     80.880   -64.428
1001.37     80.674   -63.012
1015.94     80.476   -60.732
1030.71     80.410   -58.204
1045.71     80.455   -56.182
1060.92     80.494   -54.836
1076.35     80.465   -53.776
1092.00     80.404   -52.681
1107.89     80.379   -51.774
1124.00     80.369   -51.375
1140.35     80.290   -51.227
1156.94     80.177   -50.696
1173.77     80.074   -49.590
1190.84     80.111   -48.563
1208.16     80.212   -48.385
1225.73     80.287   -49.073
1243.56     80.297   -50.072
1261.65     80.384   -51.095
1280.00     80.517   -52.401
1298.62     80.652   -54.284
1317.51     80.759   -56.877
1336.67     80.837   -60.345
1356.11     80.835   -64.755
1375.84     80.667   -69.678
1395.85     80.364   -74.239
1416.15     80.016   -77.866
1436.75     79.639   -80.695
1457.65     79.113   -83.116
1478.85     78.473   -83.892
1500.36     78.026   -82.425
1522.19     77.893   -80.719
1544.33     77.993   -80.163
1566.79     78.065   -79.838
1589.58     78.329   -79.930
1612.70     78.624   -81.915
1636.16     78.772   -85.022
1659.95     78.735   -87.334
1684.10     78.807   -89.234
1708.60     78.940   -91.952
1733.45     79.042   -95.078
1758.66     79.129   -98.516
1784.24     79.133  -102.572
1810.19     79.027  -106.376
1836.52     78.938  -109.882
1863.24     78.827  -114.043
1890.34     78.608  -118.166
1917.83     78.370  -121.378
1945.73     78.236  -124.373
1974.03     78.148  -127.378
2002.74     78.198  -130.872
2031.87     78.129  -135.227
2061.43     77.992  -139.081
2091.41     77.949  -142.982
2121.83     77.757  -147.546
2152.69     77.438  -150.168
2184.01     77.507  -151.368
2215.77     77.905  -154.390
2248.00     78.247  -159.125
2280.70     78.503  -164.726
2313.87     78.672  -171.410
2347.53     78.589  -177.874
2381.68     78.509   176.897
2416.32     78.499   171.122
2451.46     78.362   164.570
2487.12     78.095   159.229
2523.30     77.928   155.066
2560.00     77.800   150.238
2597.24     77.647   145.256
2635.01     77.604   141.116
2673.34     77.353   137.028
2712.23     77.081   133.973
2751.68     77.229   130.513
2791.70     77.259   124.913
2832.31     77.006   120.627
2873.50     76.818   116.797
2915.30     76.595   113.072
2957.70     76.584   110.005
3000.72     76.539   105.585
3044.37     76.186   100.930
3088.65     75.698    98.539
3133.58     75.450    97.425
3179.16     75.398    96.044
3225.40     75.255    92.732
3272.31     74.906    90.157
3319.91     74.666    88.802
3368.20     74.530    88.175
3417.19     74.431    86.744
3466.89     74.142    85.468
3517.32     74.035    85.576
3568.48     74.018    85.127
3620.39     74.064    84.641
3673.05     74.189    83.336
3726.47     74.074    82.138
3780.67     73.986    82.118
3835.67     74.175    82.192
3891.46     74.459    81.356
3948.06     74.581    79.597
4005.49     74.736    78.350
4063.75     74.975    76.577
4122.86     75.115    73.801
4182.82     75.176    70.992
4243.66     75.248    69.030
4305.39     75.333    66.745
4368.01     75.249    63.930
4431.55     75.205    61.186
4496.01     75.157    58.813
4561.40     75.160    55.836
4627.75     75.037    52.541
4695.06     74.749    49.739
4763.35     74.476    46.925
4832.64     74.089    45.455
4902.93     73.855    44.262
4974.24     73.470    42.816
5046.60     73.051    43.445
5120.00     72.830    44.307
5194.47     72.765    45.715
5270.03     72.680    46.703
5346.68     72.740    45.340
5424.45     72.764    45.333
5503.35     72.953    47.636
5583.40     73.476    46.823
5664.61     73.314    42.503
5747.01     73.460    41.865
5830.60     74.017    40.568
5915.41     73.935    37.274
6001.45     73.814    34.381
6088.74     73.503    30.980
6177.30     73.347    29.289
6267.15     73.293    26.449
6358.31     73.063    24.275
6450.80     72.789    22.429
6544.62     72.438    20.680
6639.82     72.154    20.624
6736.40     71.975    19.738
6834.38     71.708    19.666
6933.79     71.581    19.013
7034.64     71.425    19.284
7136.96     71.377    19.615
7240.77     71.356    20.639
7346.09     71.566    20.894
7452.94     71.740    19.911
7561.35     71.874    18.218
7671.33     71.885    16.198
7782.91     71.839    14.627
7896.12     71.633    13.968
8010.97     71.745    13.878
8127.49     71.905    12.317
8245.71     72.026     9.866
8365.65     71.914     7.251
8487.33     71.762     4.965
8610.78     71.516     3.553
8736.03     71.315     3.365
8863.09     71.443     3.685
8992.01     71.743     0.871
9122.80     71.546    -3.781
9255.50     71.045    -6.121
9390.12     70.425    -5.999
9526.70     70.068    -4.411
9665.27     69.994    -2.219
9805.86     70.161    -1.243
9948.49     70.398    -1.639
10093.2     70.526    -3.464
10240.0     70.518    -5.652
10388.9     70.315    -8.249
10540.1     69.891   -10.523
10693.4     69.388   -11.021
10848.9     69.098   -10.088
11006.7     69.025   -11.152
11166.8     68.653   -14.220
11329.2     67.742   -16.556
11494.0     66.103   -14.173
11661.2     65.091     3.735
11830.8     68.208    17.691
12002.9     69.621     3.653
12177.5     68.735    -4.958
12354.6     67.922    -4.542
12534.3     67.777    -2.687
12716.6     67.812    -2.982
12901.6     67.629    -4.411
13089.2     67.396    -4.393
13279.6     67.415    -4.287
13472.8     67.417    -6.241
13668.8     67.047    -8.171
13867.6     66.560    -7.604
14069.3     66.220    -3.915
14273.9     67.275     2.696
14481.5     68.576    -4.714
14692.2     68.284   -13.545
14905.9     67.595   -18.775
15122.7     66.886   -19.470
15342.7     66.791   -21.236
15565.8     66.393   -25.762
15792.2     65.557   -26.397
16021.9     65.316   -24.544
16255.0     65.431   -27.463
16491.4     64.681   -34.765
16731.3     62.636   -30.891
16974.7     63.417   -12.927
17221.6     64.895   -19.437
17472.1     64.294   -27.887
17726.2     63.087   -26.607
17984.0     62.819   -22.333
18245.6     62.754   -23.706
18511.0     61.625   -14.788
18780.2     63.124    -1.850
19053.4     64.813    -1.126
19330.5     67.115    -6.955
19611.7     68.391   -24.494
19897.0     68.208   -39.236
20186.4     68.094   -39.634
20480.0     67.979   -40.030
20777.9     67.865   -40.427
21080.1     67.751   -40.823
21386.7     67.637   -41.221
21697.8     67.522   -41.618
22013.4     67.408   -42.016
22333.6     67.295   -42.414
22658.4     67.181   -42.813
22988.0     67.067   -43.212
23322.4     66.953   -43.611
23661.6     66.839   -44.010
24005.8     66.726   -44.410
24355.0     66.612   -44.810
24709.2     66.499   -45.210
25068.6     66.385   -45.611
25433.2     66.272   -46.012
25803.2     66.158   -46.413
26178.5     66.045   -46.814
26559.3     65.931   -47.216
26945.6     65.818   -47.618
27337.5     65.705   -48.020
27735.2     65.592   -48.423
28138.6     65.478   -48.825
28547.9     65.365   -49.228
28963.1     65.252   -49.631
29384.4     65.139   -50.035
29811.8     65.025   -50.438
30245.4     64.912   -50.842
30685.3     64.799   -51.246
31131.7     64.686   -51.650
31584.5     64.573   -52.054
32043.9     64.460   -52.459
32510.0     64.347   -52.863
32982.8     64.234   -53.268
33462.6     64.121   -53.673
33949.3     64.008   -54.079
34443.1     63.895   -54.484
34944.1     63.782   -54.890
35452.4     63.669   -55.295
35968.0     63.556   -55.701
36491.2     63.443   -56.107
37022.0     63.330   -56.514
37560.5     63.217   -56.920
38106.8     63.104   -57.327
38661.1     62.991   -57.733
39223.4     62.878   -58.140
39793.9     62.765   -58.547
