"SPL Horizontal"
"On-Axis"		"10°"		"-10°"		"20°"		"-20°"		"30°"		"-30°"		"40°"		"-40°"		"50°"		"-50°"		"60°"		"-60°"		"70°"		"-70°"		"80°"		"-80°"		"90°"		"-90°"		"100°"		"-100°"		"110°"		"-110°"		"120°"		"-120°"		"130°"		"-130°"		"140°"		"-140°"		"150°"		"-150°"		"160°"		"-160°"		"170°"		"-170°"		"180°"
"Frequency / Hz"	"Sound Pressure Level / dB (re 20 µPa/V)  [2.83  V @ 1. m]"	"Frequency / Hz"	"Sound Pressure Level / dB (re 20 µPa/V)  [2.83  V @ 1. m]"	"Frequency / Hz"	"Sound Pressure Level / dB (re 20 µPa/V)  [2.83  V @ 1. m]"	"Frequency / Hz"	"Sound Pressure Level / dB (re 20 µPa/V)  [2.83  V @ 1. m]"	"Frequency / Hz"	"Sound Pressure Level / dB (re 20 µPa/V)  [2.83  V @ 1. m]"	"Frequency / Hz"	"Sound Pressure Level / dB (re 20 µPa/V)  [2.83  V @ 1. m]"	"Frequency / Hz"	"Sound Pressure Level / dB (re 20 µPa/V)  [2.83  V @ 1. m]"	"Frequency / Hz"	"Sound Pressure Level / dB (re 20 µPa/V)  [2.83  V @ 1. m]"	"Frequency / Hz"	"Sound Pressure Level / dB (re 20 µPa/V)  [2.83  V @ 1. m]"	"Frequency / Hz"	"Sound Pressure Level / dB (re 20 µPa/V)  [2.83  V @ 1. m]"	"Frequency / Hz"	"Sound Pressure Level / dB (re 20 µPa/V)  [2.83  V @ 1. m]"	"Frequency / Hz"	"Sound Pressure Level / dB (re 20 µPa/V)  [2.83  V @ 1. m]"	"Frequency / Hz"	"Sound Pressure Level / dB (re 20 µPa/V)  [2.83  V @ 1. m]"	"Frequency / Hz"	"Sound Pressure Level / dB (re 20 µPa/V)  [2.83  V @ 1. m]"	"Frequency / Hz"	"Sound Pressure Level / dB (re 20 µPa/V)  [2.83  V @ 1. m]"	"Frequency / Hz"	"Sound Pressure Level / dB (re 20 µPa/V)  [2.83  V @ 1. m]"	"Frequency / Hz"	"Sound Pressure Level / dB (re 20 µPa/V)  [2.83  V @ 1. m]"	"Frequency / Hz"	"Sound Pressure Level / dB (re 20 µPa/V)  [2.83  V @ 1. m]"	"Frequency / Hz"	"Sound Pressure Level / dB (re 20 µPa/V)  [2.83  V @ 1. m]"	"Frequency / Hz"	"Sound Pressure Level / dB (re 20 µPa/V)  [2.83  V @ 1. m]"	"Frequency / Hz"	"Sound Pressure Level / dB (re 20 µPa/V)  [2.83  V @ 1. m]"	"Frequency / Hz"	"Sound Pressure Level / dB (re 20 µPa/V)  [2.83  V @ 1. m]"	"Frequency / Hz"	"Sound Pressure Level / dB (re 20 µPa/V)  [2.83  V @ 1. m]"	"Frequency / Hz"	"Sound Pressure Level / dB (re 20 µPa/V)  [2.83  V @ 1. m]"	"Frequency / Hz"	"Sound Pressure Level / dB (re 20 µPa/V)  [2.83  V @ 1. m]"	"Frequency / Hz"	"Sound Pressure Level / dB (re 20 µPa/V)  [2.83  V @ 1. m]"	"Frequency / Hz"	"Sound Pressure Level / dB (re 20 µPa/V)  [2.83  V @ 1. m]"	"Frequency / Hz"	"Sound Pressure Level / dB (re 20 µPa/V)  [2.83  V @ 1. m]"	"Frequency / Hz"	"Sound Pressure Level / dB (re 20 µPa/V)  [2.83  V @ 1. m]"	"Frequency / Hz"	"Sound Pressure Level / dB (re 20 µPa/V)  [2.83  V @ 1. m]"	"Frequency / Hz"	"Sound Pressure Level / dB (re 20 µPa/V)  [2.83  V @ 1. m]"	"Frequency / Hz"	"Sound Pressure Level / dB (re 20 µPa/V)  [2.83  V @ 1. m]"	"Frequency / Hz"	"Sound Pressure Level / dB (re 20 µPa/V)  [2.83  V @ 1. m]"	"Frequency / Hz"	"Sound Pressure Level / dB (re 20 µPa/V)  [2.83  V @ 1. m]"	"Frequency / Hz"	"Sound Pressure Level / dB (re 20 µPa/V)  [2.83  V @ 1. m]"	"Frequency / Hz"	"Sound Pressure Level / dB (re 20 µPa/V)  [2.83  V @ 1. m]"
20.5078	52.363	20.5078	52.3065	20.5078	52.2179	20.5078	52.0416	20.5078	51.867	20.5078	51.5497	20.5078	51.2959	20.5078	50.7996	20.5078	50.4837	20.5078	49.7504	20.5078	49.4119	20.5078	48.367	20.5078	48.0993	20.5078	46.6973	20.5078	46.7123	20.5078	45.1518	20.5078	45.7905	20.5078	44.8588	20.5078	46.1187	20.5078	46.3936	20.5078	47.6629	20.5078	48.6682	20.5078	49.6205	20.5078	50.8093	20.5078	51.4649	20.5078	52.5886	20.5078	53.0312	20.5078	53.9961	20.5078	54.2921	20.5078	55.0613	20.5078	55.2545	20.5078	55.8114	20.5078	55.9284	20.5078	56.265	20.5078	56.3203	20.5078	56.4329
21.9727	53.4964	21.9727	53.4244	21.9727	53.3746	21.9727	53.1628	21.9727	53.0506	21.9727	52.7127	21.9727	52.5129	21.9727	52.0782	21.9727	51.7531	21.9727	51.282	21.9727	50.786	21.9727	50.4033	21.9727	49.7047	21.9727	49.647	21.9727	48.798	21.9727	49.3799	21.9727	48.6032	21.9727	49.9163	21.9727	49.4673	21.9727	51.156	21.9727	51.0553	21.9727	52.7046	21.9727	52.8182	21.9727	54.2439	21.9727	54.4501	21.9727	55.6187	21.9727	55.8442	21.9727	56.7698	21.9727	56.9751	21.9727	57.6774	21.9727	57.8419	21.9727	58.3355	21.9727	58.4489	21.9727	58.7424	21.9727	58.8	21.9727	58.8975
23.4375	54.5887	23.4375	54.5264	23.4375	54.4494	23.4375	54.2569	23.4375	54.1098	23.4375	53.7701	23.4375	53.5707	23.4375	53.056	23.4375	52.8436	23.4375	52.1217	23.4375	51.9787	23.4375	51.0428	23.4375	51.1235	23.4375	50.0805	23.4375	50.596	23.4375	49.7792	23.4375	50.7956	23.4375	50.5771	23.4375	51.8149	23.4375	52.1883	23.4375	53.316	23.4375	54.019	23.4375	54.9148	23.4375	55.7244	23.4375	56.3975	23.4375	57.1862	23.4375	57.6787	23.4375	58.3786	23.4375	58.7304	23.4375	59.3033	23.4375	59.5443	23.4375	59.9674	23.4375	60.1179	23.4375	60.377	23.4375	60.4493	23.4375	60.5365
24.9023	56.3867	24.9023	56.3299	24.9023	56.2861	24.9023	56.1129	24.9023	56.0352	24.9023	55.7378	24.9023	55.6494	24.9023	55.2194	24.9023	55.1624	24.9023	54.6027	24.9023	54.6447	24.9023	53.9953	24.9023	54.2264	24.9023	53.5994	24.9023	54.094	24.9023	53.6713	24.9023	54.4118	24.9023	54.3398	24.9023	55.1943	24.9023	55.4717	24.9023	56.2909	24.9023	56.8034	24.9023	57.5046	24.9023	58.1236	24.9023	58.6866	24.9023	59.3154	24.9023	59.7499	24.9023	60.3245	24.9023	60.6482	24.9023	61.1278	24.9023	61.3569	24.9023	61.7154	24.9023	61.8618	24.9023	62.0829	24.9023	62.1543	24.9023	62.2289
26.3672	57.9316	26.3672	57.8293	26.3672	57.9145	26.3672	57.6106	26.3672	57.7822	26.3672	57.2875	26.3672	57.5468	26.3672	56.8888	26.3672	57.2348	26.3672	56.472	26.3672	56.8956	26.3672	56.1368	26.3672	56.6126	26.3672	56.0221	26.3672	56.5017	26.3672	56.2566	26.3672	56.6791	26.3672	56.876	26.3672	57.197	26.3672	57.7919	26.3672	58.0044	26.3672	58.8541	26.3672	58.9795	26.3672	59.9271	26.3672	59.9945	26.3672	60.9189	26.3672	60.9524	26.3672	61.7746	26.3672	61.7902	26.3672	62.4627	26.3672	62.4697	26.3672	62.9649	26.3672	62.9679	26.3672	63.2703	26.3672	63.2715	26.3672	63.3731
27.832	60.0664	27.832	60.0256	27.832	59.9902	27.832	59.8711	27.832	59.7992	27.832	59.6126	27.832	59.5027	27.832	59.2711	27.832	59.123	27.832	58.8877	27.832	58.7053	27.832	58.5346	27.832	58.3299	27.832	58.3192	27.832	58.116	27.832	58.3628	27.832	58.1925	27.832	58.7412	27.832	58.6288	27.832	59.4308	27.832	59.3819	27.832	60.3223	27.832	60.3247	27.832	61.2842	27.832	61.3193	27.832	62.2103	27.832	62.2613	27.832	63.0301	27.832	63.0841	27.832	63.7008	27.832	63.7487	27.832	64.1973	27.832	64.2326	27.832	64.5045	27.832	64.5232	27.832	64.6142
29.2969	61.0437	29.2969	61.0002	29.2969	60.9873	29.2969	60.8596	29.2969	60.8356	29.2969	60.6337	29.2969	60.6031	29.2969	60.3475	29.2969	60.3179	29.2969	60.0462	29.2969	60.0296	29.2969	59.802	29.2969	59.8135	29.2969	59.7113	29.2969	59.7651	29.2969	59.8676	29.2969	59.9698	29.2969	60.3149	29.2969	60.4586	29.2969	61.0169	29.2969	61.1858	29.2969	61.8775	29.2969	62.0537	29.2969	62.7883	29.2969	62.9577	29.2969	63.6614	29.2969	63.8142	29.2969	64.4359	29.2969	64.5654	29.2969	65.0729	29.2969	65.1741	29.2969	65.5478	29.2969	65.6173	29.2969	65.8457	29.2969	65.881	29.2969	65.9578
30.7617	62.792	30.7617	62.7555	30.7617	62.7465	30.7617	62.6391	30.7617	62.6235	30.7617	62.453	30.7617	62.4359	30.7617	62.2186	30.7617	62.2081	30.7617	61.9723	30.7617	61.9796	30.7617	61.7704	30.7617	61.8082	30.7617	61.6859	30.7617	61.7651	30.7617	61.7923	30.7617	61.9166	30.7617	62.1325	30.7617	62.2954	30.7617	62.6941	30.7617	62.8807	30.7617	63.4134	30.7617	63.6065	30.7617	64.2039	30.7617	64.3891	30.7617	64.9851	30.7617	65.1519	30.7617	65.6943	30.7617	65.8354	30.7617	66.2876	30.7617	66.3978	30.7617	66.7354	30.7617	66.811	30.7617	67.0191	30.7617	67.0575	30.7617	67.1277
32.2266	63.7352	32.2266	63.7112	32.2266	63.6855	32.2266	63.6164	32.2266	63.5662	32.2266	63.4612	32.2266	63.3894	32.2266	63.266	32.2266	63.1778	32.2266	63.0643	32.2266	62.968	32.2266	62.905	32.2266	62.8129	32.2266	62.8498	32.2266	62.7771	32.2266	62.9598	32.2266	62.9211	32.2266	63.2726	32.2266	63.2759	32.2266	63.7816	32.2266	63.8248	32.2266	64.4367	32.2266	64.509	32.2266	65.1642	32.2266	65.2513	32.2266	65.8906	32.2266	65.979	32.2266	66.5553	32.2266	66.6348	32.2266	67.1136	32.2266	67.1775	32.2266	67.535	32.2266	67.5793	32.2266	67.7997	32.2266	67.8223	32.2266	67.8968
33.6914	65.2126	33.6914	65.1896	33.6914	65.1733	33.6914	65.1064	33.6914	65.0762	33.6914	64.9724	33.6914	64.933	33.6914	64.8052	33.6914	64.7648	33.6914	64.6342	33.6914	64.6041	33.6914	64.5011	33.6914	64.4958	33.6914	64.4578	33.6914	64.4915	33.6914	64.556	33.6914	64.6377	33.6914	64.8295	33.6914	64.9574	33.6914	65.2768	33.6914	65.4378	33.6914	65.8598	33.6914	66.0339	33.6914	66.5167	33.6914	66.6844	33.6914	67.1812	33.6914	67.3284	33.6914	67.7959	33.6914	67.9146	33.6914	68.3164	33.6914	68.4041	33.6914	68.7116	33.6914	68.7688	33.6914	68.9615	33.6914	68.9895	33.6914	69.0551
35.1562	66.2271	35.1562	66.2034	35.1562	66.1903	35.1562	66.1212	35.1562	66.0975	35.1562	65.9889	35.1562	65.9597	35.1562	65.8229	35.1562	65.7966	35.1562	65.6502	35.1562	65.6383	35.1562	65.5098	35.1562	65.5255	35.1562	65.4504	35.1562	65.506	35.1562	65.5218	35.1562	65.6235	35.1562	65.7583	35.1562	65.9027	35.1562	66.1628	35.1562	66.3367	35.1562	66.7026	35.1562	66.8878	35.1562	67.3207	35.1562	67.5	35.1562	67.9537	35.1562	68.1142	35.1562	68.545	35.1562	68.6785	35.1562	69.0499	35.1562	69.1522	35.1562	69.4364	35.1562	69.5053	35.1562	69.6833	35.1562	69.7179	35.1562	69.7785
36.6211	67.1346	36.6211	67.1192	36.6211	67.1031	36.6211	67.0586	36.6211	67.0289	36.6211	66.9617	36.6211	66.9235	36.6211	66.845	36.6211	66.806	36.6211	66.7341	36.6211	66.7042	36.6211	66.6638	36.6211	66.6539	36.6211	66.6746	36.6211	66.6944	36.6211	66.8045	36.6211	66.8589	36.6211	67.0763	36.6211	67.1634	36.6211	67.4872	36.6211	67.5983	36.6211	68.0076	36.6211	68.1301	36.6211	68.5894	36.6211	68.711	36.6211	69.1794	36.6211	69.2901	36.6211	69.7286	36.6211	69.8219	36.6211	70.1972	36.6211	70.2693	36.6211	70.5556	36.6211	70.6044	36.6211	70.7834	36.6211	70.808	36.6211	70.8688
38.0859	68.6087	38.0859	68.5949	38.0859	68.5867	38.0859	68.5472	38.0859	68.5326	38.0859	68.4728	38.0859	68.4553	38.0859	68.3849	38.0859	68.3703	38.0859	68.3036	38.0859	68.2993	38.0859	68.2552	38.0859	68.2697	38.0859	68.2699	38.0859	68.3113	38.0859	68.3768	38.0859	68.4498	38.0859	68.5952	38.0859	68.6992	38.0859	68.9271	38.0859	69.0555	38.0859	69.3541	38.0859	69.4961	38.0859	69.8416	38.0859	69.9848	38.0859	70.3467	38.0859	70.48	38.0859	70.8261	38.0859	70.941	38.0859	71.2424	38.0859	71.3328	38.0859	71.5656	38.0859	71.6277	38.0859	71.7744	38.0859	71.806	38.0859	71.856
39.5508	69.6414	39.5508	69.627	39.5508	69.6223	39.5508	69.5808	39.5508	69.5729	39.5508	69.5095	39.5508	69.5011	39.5508	69.4251	39.5508	69.4205	39.5508	69.3456	39.5508	69.3504	39.5508	69.2946	39.5508	69.3152	39.5508	69.2996	39.5508	69.3416	39.5508	69.3874	39.5508	69.454	39.5508	69.5767	39.5508	69.6671	39.5508	69.8715	39.5508	69.9807	39.5508	70.2575	39.5508	70.3772	39.5508	70.7045	39.5508	70.8251	39.5508	71.173	39.5508	71.2857	39.5508	71.622	39.5508	71.7196	39.5508	72.0146	39.5508	72.0918	39.5508	72.3207	39.5508	72.374	39.5508	72.5187	39.5508	72.5458	39.5508	72.5953
41.0156	70.9081	41.0156	70.8961	41.0156	70.891	41.0156	70.8563	41.0156	70.8475	41.0156	70.7943	41.0156	70.7849	41.0156	70.7202	41.0156	70.7147	41.0156	70.6489	41.0156	70.6532	41.0156	70.6005	41.0156	70.6209	41.0156	70.5979	41.0156	70.6401	41.0156	70.6639	41.0156	70.7315	41.0156	70.816	41.0156	70.9086	41.0156	71.0599	41.0156	71.1732	41.0156	71.3865	41.0156	71.5123	41.0156	71.7722	41.0156	71.9006	41.0156	72.1838	41.0156	72.305	41.0156	72.5844	41.0156	72.69	41.0156	72.939	41.0156	73.0229	41.0156	73.2186	41.0156	73.2765	41.0156	73.4012	41.0156	73.4308	41.0156	73.4736
42.4805	71.8266	42.4805	71.813	42.4805	71.8144	42.4805	71.7749	42.4805	71.7789	42.4805	71.7175	42.4805	71.7265	42.4805	71.6504	42.4805	71.6678	42.4805	71.5877	42.4805	71.6171	42.4805	71.5477	42.4805	71.5924	42.4805	71.5516	42.4805	71.6138	42.4805	71.62	42.4805	71.6998	42.4805	71.7683	42.4805	71.8631	42.4805	72.0016	42.4805	72.1064	42.4805	72.3114	42.4805	72.4195	42.4805	72.6761	42.4805	72.7807	42.4805	73.0647	42.4805	73.1596	42.4805	73.4429	42.4805	73.5234	42.4805	73.7777	42.4805	73.8405	42.4805	74.0411	42.4805	74.084	42.4805	74.2121	42.4805	74.2339	42.4805	74.2779
43.9453	72.7375	43.9453	72.7267	43.9453	72.7252	43.9453	72.6943	43.9453	72.6919	43.9453	72.6453	43.9453	72.6429	43.9453	72.5884	43.9453	72.5874	43.9453	72.5361	43.9453	72.5385	43.9453	72.5045	43.9453	72.5123	43.9453	72.5117	43.9453	72.527	43.9453	72.5754	43.9453	72.5998	43.9453	72.7092	43.9453	72.7432	43.9453	72.9178	43.9453	72.9607	43.9453	73.1949	43.9453	73.2443	43.9453	73.5225	43.9453	73.5751	43.9453	73.874	43.9453	73.9257	43.9453	74.2185	43.9453	74.2653	43.9453	74.5252	43.9453	74.5635	43.9453	74.7673	43.9453	74.7944	43.9453	74.9241	43.9453	74.9381	43.9453	74.9826
45.4102	73.2773	45.4102	73.2801	45.4102	73.2599	45.4102	73.2693	45.4102	73.23	45.4102	73.2491	45.4102	73.1929	45.4102	73.227	45.4102	73.157	45.4102	73.2135	45.4102	73.1338	45.4102	73.2218	45.4102	73.137	45.4102	73.2665	45.4102	73.1815	45.4102	73.3613	45.4102	73.2807	45.4102	73.5158	45.4102	73.4433	45.4102	73.7326	45.4102	73.6706	45.4102	74.0053	45.4102	73.9546	45.4102	74.3177	45.4102	74.278	45.4102	74.6469	45.4102	74.6168	45.4102	74.9656	45.4102	74.9438	45.4102	75.2467	45.4102	75.2318	45.4102	75.4661	45.4102	75.4569	45.4102	75.6049	45.4102	75.6005	45.4102	75.6511
46.875	74.6775	46.875	74.6829	46.875	74.6558	46.875	74.6727	46.875	74.6196	46.875	74.6502	46.875	74.5732	46.875	74.6211	46.875	74.5236	46.875	74.594	46.875	74.4807	46.875	74.5797	46.875	74.4563	46.875	74.5907	46.875	74.464	46.875	74.6396	46.875	74.5169	46.875	74.7371	46.875	74.6252	46.875	74.8888	46.875	74.7934	46.875	75.0931	46.875	75.0173	46.875	75.3394	46.875	75.2839	46.875	75.6097	46.875	75.5725	46.875	75.8801	46.875	75.8575	46.875	76.1248	46.875	76.1126	46.875	76.3196	46.875	76.3139	46.875	76.4448	46.875	76.4427	46.875	76.4875
48.3398	75.2849	48.3398	75.2859	48.3398	75.271	48.3398	75.2746	48.3398	75.2457	48.3398	75.2541	48.3398	75.2129	48.3398	75.2298	48.3398	75.1789	48.3398	75.2095	48.3398	75.1523	48.3398	75.2033	48.3398	75.1437	48.3398	75.2225	48.3398	75.1648	48.3398	75.2785	48.3398	75.2271	48.3398	75.3806	48.3398	75.3393	48.3398	75.5336	48.3398	75.505	48.3398	75.7355	48.3398	75.7202	48.3398	75.9763	48.3398	75.973	48.3398	76.2388	48.3398	76.2446	48.3398	76.5006	48.3398	76.5116	48.3398	76.7376	48.3398	76.7499	48.3398	76.9268	48.3398	76.937	48.3398	77.0497	48.3398	77.0554	48.3398	77.0941
51.2695	76.6884	51.2695	76.6929	51.2695	76.6767	51.2695	76.6907	51.2695	76.6592	51.2695	76.6839	51.2695	76.6389	51.2695	76.6761	51.2695	76.6203	51.2695	76.6729	51.2695	76.6098	51.2695	76.681	51.2695	76.615	51.2695	76.7085	51.2695	76.6443	51.2695	76.7634	51.2695	76.7059	51.2695	76.8525	51.2695	76.8059	51.2695	76.9797	51.2695	76.9468	51.2695	77.1443	51.2695	77.1258	51.2695	77.3394	51.2695	77.3341	51.2695	77.5527	51.2695	77.5575	51.2695	77.7668	51.2695	77.7777	51.2695	77.9621	51.2695	77.975	51.2695	78.1195	51.2695	78.1304	51.2695	78.2226	51.2695	78.2288	51.2695	78.2605
52.7344	77.454	52.7344	77.4577	52.7344	77.4445	52.7344	77.4559	52.7344	77.4302	52.7344	77.4504	52.7344	77.4135	52.7344	77.4441	52.7344	77.3983	52.7344	77.4418	52.7344	77.3898	52.7344	77.4493	52.7344	77.3943	52.7344	77.4732	52.7344	77.4189	52.7344	77.5207	52.7344	77.4706	52.7344	77.5976	52.7344	77.5549	52.7344	77.7077	52.7344	77.6747	52.7344	77.8506	52.7344	77.8284	52.7344	78.021	52.7344	78.0093	52.7344	78.2083	52.7344	78.2055	52.7344	78.3977	52.7344	78.401	52.7344	78.5715	52.7344	78.5779	52.7344	78.7121	52.7344	78.7185	52.7344	78.8044	52.7344	78.8083	52.7344	78.8379
54.1992	78.104	54.1992	78.1083	54.1992	78.0948	54.1992	78.1079	54.1992	78.0817	54.1992	78.1043	54.1992	78.0667	54.1992	78.1001	54.1992	78.0533	54.1992	78.0992	54.1992	78.0457	54.1992	78.1066	54.1992	78.0495	54.1992	78.1283	54.1992	78.071	54.1992	78.1703	54.1992	78.1162	54.1992	78.2379	54.1992	78.1906	54.1992	78.3345	54.1992	78.2969	54.1992	78.4603	54.1992	78.4342	54.1992	78.6111	54.1992	78.5971	54.1992	78.7783	54.1992	78.7749	54.1992	78.9487	54.1992	78.953	54.1992	79.1065	54.1992	79.1146	54.1992	79.2352	54.1992	79.2433	54.1992	79.3204	54.1992	79.3253	54.1992	79.3518
55.6641	78.6285	55.6641	78.6341	55.6641	78.6202	55.6641	78.6374	55.6641	78.6102	55.6641	78.6393	55.6641	78.6	55.6641	78.642	55.6641	78.5924	55.6641	78.6486	55.6641	78.5908	55.6641	78.663	55.6641	78.5998	55.6641	78.69	55.6641	78.6244	55.6641	78.7345	55.6641	78.67	55.6641	78.8008	55.6641	78.7412	55.6641	78.892	55.6641	78.8406	55.6641	79.0084	55.6641	78.9676	55.6641	79.1466	55.6641	79.1175	55.6641	79.2993	55.6641	79.2811	55.6641	79.4548	55.6641	79.4454	55.6641	79.5987	55.6641	79.5952	55.6641	79.7157	55.6641	79.7153	55.6641	79.7924	55.6641	79.7928	55.6641	79.8193
58.5938	79.6507	58.5938	79.6515	58.5938	79.6507	58.5938	79.6532	58.5938	79.6519	58.5938	79.6566	58.5938	79.655	58.5938	79.6628	58.5938	79.6616	58.5938	79.6736	58.5938	79.6736	58.5938	79.6913	58.5938	79.6938	58.5938	79.7187	58.5938	79.7251	58.5938	79.7588	58.5938	79.7707	58.5938	79.8148	58.5938	79.8333	58.5938	79.889	58.5938	79.9147	58.5938	79.9821	58.5938	80.0144	58.5938	80.0923	58.5938	80.1294	58.5938	80.2145	58.5938	80.2535	58.5938	80.34	58.5938	80.3775	58.5938	80.4579	58.5938	80.4901	58.5938	80.5558	58.5938	80.5793	58.5938	80.6225	58.5938	80.6349	58.5938	80.65
60.0586	80.0686	60.0586	80.0706	60.0586	80.0686	60.0586	80.0748	60.0586	80.0711	60.0586	80.0813	60.0586	80.0766	60.0586	80.0911	60.0586	80.0861	60.0586	80.1051	60.0586	80.1012	60.0586	80.1252	60.0586	80.1236	60.0586	80.1533	60.0586	80.1558	60.0586	80.1919	60.0586	80.2001	60.0586	80.2435	60.0586	80.2589	60.0586	80.3104	60.0586	80.3336	60.0586	80.3933	60.0586	80.4242	60.0586	80.4911	60.0586	80.5283	60.0586	80.5997	60.0586	80.6405	60.0586	80.7122	60.0586	80.7526	60.0586	80.8187	60.0586	80.8543	60.0586	80.9081	60.0586	80.9347	60.0586	80.97	60.0586	80.9842	60.0586	80.9965
62.9883	80.9598	62.9883	80.961	62.9883	80.9624	62.9883	80.9661	62.9883	80.9691	62.9883	80.975	62.9883	80.9797	62.9883	80.9876	62.9883	80.9946	62.9883	81.004	62.9883	81.0138	62.9883	81.0247	62.9883	81.0381	62.9883	81.0504	62.9883	81.0684	62.9883	81.0825	62.9883	81.1057	62.9883	81.1226	62.9883	81.1515	62.9883	81.1723	62.9883	81.2068	62.9883	81.2328	62.9883	81.2719	62.9883	81.3036	62.9883	81.3456	62.9883	81.3826	62.9883	81.4248	62.9883	81.465	62.9883	81.5042	62.9883	81.5437	62.9883	81.5767	62.9883	81.6104	62.9883	81.6342	62.9883	81.657	62.9883	81.6695	62.9883	81.6775
64.4531	81.3151	64.4531	81.319	64.4531	81.3158	64.4531	81.3274	64.4531	81.3212	64.4531	81.3399	64.4531	81.3313	64.4531	81.3563	64.4531	81.3458	64.4531	81.3762	64.4531	81.3648	64.4531	81.3997	64.4531	81.3884	64.4531	81.4272	64.4531	81.417	64.4531	81.4594	64.4531	81.4514	64.4531	81.4974	64.4531	81.4924	64.4531	81.5426	64.4531	81.5411	64.4531	81.5958	64.4531	81.5977	64.4531	81.6567	64.4531	81.6617	64.4531	81.7236	64.4531	81.7307	64.4531	81.7924	64.4531	81.8005	64.4531	81.8575	64.4531	81.8651	64.4531	81.9117	64.4531	81.9176	64.4531	81.9483	64.4531	81.9515	64.4531	81.9622
67.3828	81.8322	67.3828	81.8339	67.3828	81.8374	67.3828	81.8425	67.3828	81.8493	67.3828	81.8575	67.3828	81.8673	67.3828	81.8779	67.3828	81.8904	67.3828	81.9029	67.3828	81.9176	67.3828	81.9314	67.3828	81.9479	67.3828	81.9628	67.3828	81.9805	67.3828	81.9966	67.3828	82.0153	67.3828	82.0328	67.3828	82.0525	67.3828	82.0719	67.3828	82.0925	67.3828	82.1144	67.3828	82.1357	67.3828	82.1604	67.3828	82.1823	67.3828	82.2094	67.3828	82.231	67.3828	82.2594	67.3828	82.2794	67.3828	82.3067	67.3828	82.3237	67.3828	82.3468	67.3828	82.3593	67.3828	82.3748	67.3828	82.3814	67.3828	82.3869
68.8477	81.9755	68.8477	81.9753	68.8477	81.9846	68.8477	81.9839	68.8477	82.0021	68.8477	82.0006	68.8477	82.027	68.8477	82.0244	68.8477	82.0579	68.8477	82.0537	68.8477	82.093	68.8477	82.087	68.8477	82.1309	68.8477	82.1228	68.8477	82.1701	68.8477	82.1603	68.8477	82.2098	68.8477	82.1988	68.8477	82.2495	68.8477	82.2383	68.8477	82.2893	68.8477	82.2794	68.8477	82.3294	68.8477	82.3222	68.8477	82.3701	68.8477	82.3665	68.8477	82.4107	68.8477	82.4112	68.8477	82.4499	68.8477	82.4535	68.8477	82.4848	68.8477	82.4897	68.8477	82.5118	68.8477	82.516	68.8477	82.5274	68.8477	82.5291
71.7773	82.4463	71.7773	82.4476	71.7773	82.4549	71.7773	82.4585	71.7773	82.473	71.7773	82.478	71.7773	82.4995	71.7773	82.5042	71.7773	82.5326	71.7773	82.5352	71.7773	82.57	71.7773	82.5688	71.7773	82.6092	71.7773	82.6027	71.7773	82.6479	71.7773	82.6354	71.7773	82.684	71.7773	82.6657	71.7773	82.7161	71.7773	82.6933	71.7773	82.7436	71.7773	82.7185	71.7773	82.7669	71.7773	82.7422	71.7773	82.7869	71.7773	82.765	71.7773	82.8045	71.7773	82.7871	71.7773	82.8203	71.7773	82.808	71.7773	82.834	71.7773	82.8263	71.7773	82.8442	71.7773	82.8403	71.7773	82.8493	71.7773	82.8482
74.707	83.0398	74.707	83.037	74.707	83.052	74.707	83.0432	74.707	83.0727	74.707	83.0574	74.707	83.1006	74.707	83.0779	74.707	83.1335	74.707	83.1024	74.707	83.1686	74.707	83.1283	74.707	83.203	74.707	83.1531	74.707	83.2339	74.707	83.1746	74.707	83.2588	74.707	83.1911	74.707	83.2761	74.707	83.2022	74.707	83.2851	74.707	83.208	74.707	83.2863	74.707	83.2099	74.707	83.2812	74.707	83.2094	74.707	83.2718	74.707	83.2085	74.707	83.2605	74.707	83.2087	74.707	83.249	74.707	83.2108	74.707	83.2383	74.707	83.2151	74.707	83.2291	74.707	83.2213
77.6367	83.3159	77.6367	83.315	77.6367	83.3265	77.6367	83.3235	77.6367	83.3459	77.6367	83.3402	77.6367	83.3725	77.6367	83.3629	77.6367	83.4037	77.6367	83.3889	77.6367	83.4366	77.6367	83.4152	77.6367	83.4676	77.6367	83.4384	77.6367	83.4936	77.6367	83.4559	77.6367	83.5117	77.6367	83.4656	77.6367	83.5199	77.6367	83.4665	77.6367	83.5173	77.6367	83.4589	77.6367	83.5045	77.6367	83.444	77.6367	83.4834	77.6367	83.4245	77.6367	83.4571	77.6367	83.4033	77.6367	83.4291	77.6367	83.3839	77.6367	83.4029	77.6367	83.3688	77.6367	83.3814	77.6367	83.3603	77.6367	83.3665	77.6367	83.3594
79.1016	83.3584	79.1016	83.3611	79.1016	83.3657	79.1016	83.3735	79.1016	83.3823	79.1016	83.394	79.1016	83.4064	79.1016	83.4203	79.1016	83.4354	79.1016	83.4493	79.1016	83.466	79.1016	83.4776	79.1016	83.4946	79.1016	83.5018	79.1016	83.5176	79.1016	83.5187	79.1016	83.5321	79.1016	83.5262	79.1016	83.5359	79.1016	83.5229	79.1016	83.5282	79.1016	83.509	79.1016	83.5097	79.1016	83.4858	79.1016	83.4826	79.1016	83.4562	79.1016	83.4502	79.1016	83.4239	79.1016	83.4168	79.1016	83.3931	79.1016	83.3863	79.1016	83.3677	79.1016	83.3624	79.1016	83.3505	79.1016	83.3477	79.1016	83.3436
82.0312	83.563	82.0312	83.5663	82.0312	83.5713	82.0312	83.5808	82.0312	83.5903	82.0312	83.6047	82.0312	83.618	82.0312	83.6353	82.0312	83.6512	82.0312	83.6688	82.0312	83.6861	82.0312	83.7012	82.0312	83.7186	82.0312	83.7282	82.0312	83.7444	82.0312	83.7459	82.0312	83.7601	82.0312	83.7514	82.0312	83.763	82.0312	83.743	82.0312	83.7521	82.0312	83.7209	82.0312	83.7277	82.0312	83.687	82.0312	83.6922	82.0312	83.6452	82.0312	83.6493	82.0312	83.6003	82.0312	83.6038	82.0312	83.5582	82.0312	83.5611	82.0312	83.524	82.0312	83.5262	82.0312	83.5019	82.0312	83.5031	82.0312	83.4947
84.9609	83.8007	84.9609	83.7922	84.9609	83.8219	84.9609	83.7966	84.9609	83.8543	84.9609	83.8126	84.9609	83.895	84.9609	83.8375	84.9609	83.9403	84.9609	83.8677	84.9609	83.9855	84.9609	83.8988	84.9609	84.0258	84.9609	83.9261	84.9609	84.0564	84.9609	83.9453	84.9609	84.0735	84.9609	83.9531	84.9609	84.0741	84.9609	83.9473	84.9609	84.0571	84.9609	83.9277	84.9609	84.0232	84.9609	83.8958	84.9609	83.9751	84.9609	83.8549	84.9609	83.9175	84.9609	83.8099	84.9609	83.8567	84.9609	83.7667	84.9609	83.7993	84.9609	83.7315	84.9609	83.7517	84.9609	83.7096	84.9609	83.7192	84.9609	83.7049
87.8906	83.7404	87.8906	83.7436	87.8906	83.7521	87.8906	83.7614	87.8906	83.7777	87.8906	83.7918	87.8906	83.8147	87.8906	83.832	87.8906	83.8595	87.8906	83.878	87.8906	83.9075	87.8906	83.9254	87.8906	83.9534	87.8906	83.9691	87.8906	83.9919	87.8906	84.0046	87.8906	84.0182	87.8906	84.0277	87.8906	84.0289	87.8906	84.0353	87.8906	84.022	87.8906	84.0258	87.8906	83.9978	87.8906	83.9997	87.8906	83.9589	87.8906	83.9595	87.8906	83.9101	87.8906	83.9101	87.8906	83.858	87.8906	83.8578	87.8906	83.8101	87.8906	83.8099	87.8906	83.7735	87.8906	83.7733	87.8906	83.7536	87.8906	83.7536
90.8203	84.2387	90.8203	84.2592	90.8203	84.2249	90.8203	84.2857	90.8203	84.2173	90.8203	84.316	90.8203	84.2143	90.8203	84.3467	90.8203	84.2132	90.8203	84.3735	90.8203	84.2106	90.8203	84.3915	90.8203	84.2027	90.8203	84.3957	90.8203	84.1858	90.8203	84.3814	90.8203	84.1565	90.8203	84.3451	90.8203	84.1124	90.8203	84.2851	90.8203	84.0524	90.8203	84.2018	90.8203	83.9775	90.8203	84.0986	90.8203	83.8908	90.8203	83.982	90.8203	83.7979	90.8203	83.8609	90.8203	83.7067	90.8203	83.746	90.8203	83.6265	90.8203	83.6481	90.8203	83.5666	90.8203	83.5766	90.8203	83.5354	90.8203	83.5382
95.2148	84.0856	95.2148	84.0903	95.2148	84.0954	95.2148	84.1089	95.2148	84.1184	95.2148	84.1396	95.2148	84.1522	95.2148	84.1792	95.2148	84.1931	95.2148	84.2233	95.2148	84.2364	95.2148	84.2669	95.2148	84.2769	95.2148	84.3044	95.2148	84.3095	95.2148	84.3305	95.2148	84.3291	95.2148	84.3406	95.2148	84.3317	95.2148	84.3315	95.2148	84.3148	95.2148	84.3019	95.2148	84.2781	95.2148	84.2532	95.2148	84.2237	95.2148	84.1892	95.2148	84.1565	95.2148	84.1166	95.2148	84.084	95.2148	84.044	95.2148	84.0152	95.2148	83.9811	95.2148	83.9596	95.2148	83.9366	95.2148	83.9251	95.2148	83.917
98.1445	84.2501	98.1445	84.2663	98.1445	84.2446	98.1445	84.2922	98.1445	84.2495	98.1445	84.3259	98.1445	84.2635	98.1445	84.3642	98.1445	84.2839	98.1445	84.403	98.1445	84.3071	98.1445	84.4374	98.1445	84.3288	98.1445	84.4619	98.1445	84.3439	98.1445	84.4713	98.1445	84.3471	98.1445	84.4607	98.1445	84.3339	98.1445	84.4267	98.1445	84.3009	98.1445	84.3683	98.1445	84.2471	98.1445	84.2871	98.1445	84.1742	98.1445	84.1881	98.1445	84.0873	98.1445	84.08	98.1445	83.9948	98.1445	83.974	98.1445	83.9074	98.1445	83.8827	98.1445	83.8371	98.1445	83.8177	98.1445	83.7945	98.1445	83.7872
101.074	84.0285	101.074	84.042	101.074	84.0326	101.074	84.0722	101.074	84.0529	101.074	84.1168	101.074	84.0868	101.074	84.1719	101.074	84.1301	101.074	84.2321	101.074	84.1775	101.074	84.2913	101.074	84.223	101.074	84.3426	101.074	84.2607	101.074	84.3796	101.074	84.2851	101.074	84.3967	101.074	84.2915	101.074	84.3897	101.074	84.2773	101.074	84.357	101.074	84.2418	101.074	84.3	101.074	84.1872	101.074	84.2233	101.074	84.1183	101.074	84.1349	101.074	84.043	101.074	84.0451	101.074	83.9713	101.074	83.9656	101.074	83.9139	101.074	83.9072	101.074	83.8805	101.074	83.8777
105.469	84.3549	105.469	84.3625	105.469	84.3594	105.469	84.3809	105.469	84.3758	105.469	84.4073	105.469	84.4027	105.469	84.438	105.469	84.4371	105.469	84.4682	105.469	84.4743	105.469	84.4922	105.469	84.5085	105.469	84.5042	105.469	84.5329	105.469	84.4983	105.469	84.5406	105.469	84.4698	105.469	84.5255	105.469	84.4158	105.469	84.4834	105.469	84.3357	105.469	84.4125	105.469	84.2328	105.469	84.3147	105.469	84.1136	105.469	84.1955	105.469	83.9888	105.469	84.065	105.469	83.8721	105.469	83.9363	105.469	83.7782	105.469	83.8248	105.469	83.7208	105.469	83.7453	105.469	83.709
108.398	84.6093	108.398	84.6138	108.398	84.6112	108.398	84.6243	108.398	84.619	108.398	84.6394	108.398	84.631	108.398	84.6564	108.398	84.6447	108.398	84.6716	108.398	84.6565	108.398	84.6802	108.398	84.6619	108.398	84.677	108.398	84.6561	108.398	84.6562	108.398	84.6338	108.398	84.6132	108.398	84.5902	108.398	84.5445	108.398	84.522	108.398	84.449	108.398	84.4279	108.398	84.3289	108.398	84.3099	108.398	84.1906	108.398	84.1741	108.398	84.0446	108.398	84.0311	108.398	83.9052	108.398	83.895	108.398	83.7888	108.398	83.782	108.398	83.7108	108.398	83.7074	108.398	83.6824
112.793	84.6341	112.793	84.6448	112.793	84.6292	112.793	84.6602	112.793	84.6302	112.793	84.6784	112.793	84.6363	112.793	84.6969	112.793	84.6453	112.793	84.7122	112.793	84.6539	112.793	84.7205	112.793	84.6575	112.793	84.7172	112.793	84.6511	112.793	84.6977	112.793	84.629	112.793	84.6578	112.793	84.5862	112.793	84.5942	112.793	84.5193	112.793	84.5058	112.793	84.4272	112.793	84.3941	112.793	84.3126	112.793	84.2642	112.793	84.1823	112.793	84.1252	112.793	84.0473	112.793	83.9896	112.793	83.9222	112.793	83.8726	112.793	83.8224	112.793	83.7889	112.793	83.7621	112.793	83.7503
117.188	84.6992	117.188	84.7001	117.188	84.7012	117.188	84.7043	117.188	84.7048	117.188	84.711	117.188	84.7079	117.188	84.7183	117.188	84.7074	117.188	84.7232	117.188	84.6998	117.188	84.7213	117.188	84.6809	117.188	84.7075	117.188	84.6465	117.188	84.6764	117.188	84.5929	117.188	84.6228	117.188	84.5169	117.188	84.5429	117.188	84.4174	117.188	84.4352	117.188	84.2954	117.188	84.3017	117.188	84.1553	117.188	84.1487	117.188	84.005	117.188	83.987	117.188	83.8559	117.188	83.8309	117.188	83.7223	117.188	83.6969	117.188	83.6192	117.188	83.6003	117.188	83.5598	117.188	83.5528
120.117	84.8879	120.117	84.8812	120.117	84.896	120.117	84.8761	120.117	84.9041	120.117	84.8718	120.117	84.9098	120.117	84.8658	120.117	84.9096	120.117	84.8548	120.117	84.8994	120.117	84.8341	120.117	84.8742	120.117	84.7983	120.117	84.8292	120.117	84.7419	120.117	84.7598	120.117	84.6599	120.117	84.6624	120.117	84.5489	120.117	84.5353	120.117	84.4081	120.117	84.3798	120.117	84.2406	120.117	84.2008	120.117	84.0542	120.117	84.0077	120.117	83.8618	120.117	83.8141	120.117	83.6801	120.117	83.6374	120.117	83.5284	120.117	83.4962	120.117	83.4247	120.117	83.4074	120.117	83.3825
124.512	84.8422	124.512	84.8482	124.512	84.8414	124.512	84.8584	124.512	84.8453	124.512	84.8705	124.512	84.8518	124.512	84.8808	124.512	84.8573	124.512	84.8844	124.512	84.8567	124.512	84.8755	124.512	84.8438	124.512	84.8479	124.512	84.8119	124.512	84.7955	124.512	84.7545	124.512	84.7133	124.512	84.6661	124.512	84.5979	124.512	84.5438	124.512	84.4489	124.512	84.3882	124.512	84.2702	124.512	84.2043	124.512	84.0703	124.512	84.0026	124.512	83.8631	124.512	83.7983	124.512	83.6667	124.512	83.6108	124.512	83.502	124.512	83.4607	124.512	83.3886	124.512	83.3666	124.512	83.3414
128.906	84.5726	128.906	84.5816	128.906	84.5752	128.906	84.6018	128.906	84.5887	128.906	84.6313	128.906	84.6111	128.906	84.667	128.906	84.6389	128.906	84.7041	128.906	84.6672	128.906	84.7368	128.906	84.6899	128.906	84.758	128.906	84.7	128.906	84.7606	128.906	84.6906	128.906	84.738	128.906	84.6554	128.906	84.6851	128.906	84.5904	128.906	84.5997	128.906	84.4947	128.906	84.4834	128.906	84.3718	128.906	84.3425	128.906	84.2301	128.906	84.188	128.906	84.0824	128.906	84.0353	128.906	83.9453	128.906	83.9023	128.906	83.8363	128.906	83.8061	128.906	83.7712	128.906	83.7603
133.301	84.6065	133.301	84.6217	133.301	84.6013	133.301	84.6459	133.301	84.6057	133.301	84.6773	133.301	84.6181	133.301	84.7126	133.301	84.6356	133.301	84.7473	133.301	84.6538	133.301	84.7758	133.301	84.667	133.301	84.7916	133.301	84.669	133.301	84.7876	133.301	84.6528	133.301	84.7574	133.301	84.6127	133.301	84.6961	133.301	84.5445	133.301	84.6016	133.301	84.4471	133.301	84.4757	133.301	84.3233	133.301	84.325	133.301	84.1809	133.301	84.161	133.301	84.0324	133.301	83.9996	133.301	83.8942	133.301	83.8594	133.301	83.7843	133.301	83.758	133.301	83.7189	133.301	83.7092
139.16	84.6437	139.16	84.663	139.16	84.6297	139.16	84.6871	139.16	84.621	139.16	84.7146	139.16	84.6164	139.16	84.743	139.16	84.6138	139.16	84.7688	139.16	84.6099	139.16	84.787	139.16	84.5999	139.16	84.7918	139.16	84.5781	139.16	84.7767	139.16	84.5385	139.16	84.7355	139.16	84.4757	139.16	84.6633	139.16	84.3862	139.16	84.5576	139.16	84.2696	139.16	84.4196	139.16	84.1298	139.16	84.2554	139.16	83.9759	139.16	84.0758	139.16	83.8218	139.16	83.8967	139.16	83.6851	139.16	83.7365	139.16	83.5839	139.16	83.6137	139.16	83.5336	139.16	83.5434
143.555	84.651	143.555	84.6523	143.555	84.6527	143.555	84.6566	143.555	84.657	143.555	84.6631	143.555	84.6629	143.555	84.6708	143.555	84.6688	143.555	84.677	143.555	84.6715	143.555	84.6778	143.555	84.6666	143.555	84.6682	143.555	84.6486	143.555	84.6421	143.555	84.6116	143.555	84.5938	143.555	84.5504	143.555	84.5187	143.555	84.4612	143.555	84.415	143.555	84.3437	143.555	84.2842	143.555	84.2015	143.555	84.1325	143.555	84.0432	143.555	83.9706	143.555	83.882	143.555	83.8132	143.555	83.7344	143.555	83.6776	143.555	83.6181	143.555	83.5806	143.555	83.5485	143.555	83.5354
147.949	84.6166	147.949	84.6089	147.949	84.626	147.949	84.6032	147.949	84.6362	147.949	84.5996	147.949	84.6465	147.949	84.5973	147.949	84.6552	147.949	84.594	147.949	84.6597	147.949	84.5859	147.949	84.6561	147.949	84.5674	147.949	84.6393	147.949	84.532	147.949	84.6037	147.949	84.4734	147.949	84.544	147.949	84.3868	147.949	84.4562	147.949	84.2709	147.949	84.3393	147.949	84.1288	147.949	84.1958	147.949	83.9689	147.949	84.0332	147.949	83.8044	147.949	83.8631	147.949	83.652	147.949	83.7012	147.949	83.5296	147.949	83.5653	147.949	83.4529	147.949	83.4717	147.949	83.4325
153.809	84.637	153.809	84.6292	153.809	84.6432	153.809	84.62	153.809	84.6475	153.809	84.6088	153.809	84.6492	153.809	84.5947	153.809	84.6466	153.809	84.5759	153.809	84.637	153.809	84.5495	153.809	84.6165	153.809	84.5113	153.809	84.5806	153.809	84.4568	153.809	84.5242	153.809	84.3811	153.809	84.4435	153.809	84.2809	153.809	84.3359	153.809	84.1555	153.809	84.2018	153.809	84.0078	153.809	84.045	153.809	83.8456	153.809	83.8736	153.809	83.6805	153.809	83.6999	153.809	83.5276	153.809	83.5395	153.809	83.4032	153.809	83.4093	153.809	83.3217	153.809	83.3241	153.809	83.2939
159.668	84.6294	159.668	84.6373	159.668	84.6218	159.668	84.6449	159.668	84.6152	159.668	84.6507	159.668	84.609	159.668	84.6527	159.668	84.6024	159.668	84.6483	159.668	84.5928	159.668	84.6337	159.668	84.5765	159.668	84.6048	159.668	84.5485	159.668	84.5568	159.668	84.5034	159.668	84.4856	159.668	84.4364	159.668	84.3885	159.668	84.3448	159.668	84.2654	159.668	84.2287	159.668	84.1202	159.668	84.0921	159.668	83.9614	159.668	83.943	159.668	83.8016	159.668	83.7925	159.668	83.656	159.668	83.6541	159.668	83.5398	159.668	83.5418	159.668	83.4656	159.668	83.4677	159.668	83.441
165.527	84.6367	165.527	84.627	165.527	84.6462	165.527	84.6186	165.527	84.6546	165.527	84.613	165.527	84.6611	165.527	84.611	165.527	84.6651	165.527	84.6114	165.527	84.665	165.527	84.6109	165.527	84.6577	165.527	84.6038	165.527	84.6387	165.527	84.5831	165.527	84.6025	165.527	84.5416	165.527	84.5439	165.527	84.4742	165.527	84.4594	165.527	84.3787	165.527	84.349	165.527	84.2578	165.527	84.2169	165.527	84.1189	165.527	84.0723	165.527	83.974	165.527	83.9275	165.527	83.8377	165.527	83.797	165.527	83.7247	165.527	83.6948	165.527	83.6479	165.527	83.6322	165.527	83.6159
171.387	84.7567	171.387	84.7319	171.387	84.7723	171.387	84.699	171.387	84.779	171.387	84.66	171.387	84.7773	171.387	84.617	171.387	84.7682	171.387	84.5719	171.387	84.7518	171.387	84.5251	171.387	84.7268	171.387	84.475	171.387	84.69	171.387	84.4178	171.387	84.6363	171.387	84.3484	171.387	84.5602	171.387	84.262	171.387	84.4573	171.387	84.1558	171.387	84.3263	171.387	84.0308	171.387	84.1708	171.387	83.8928	171.387	84.0002	171.387	83.752	171.387	83.8283	171.387	83.6218	171.387	83.6713	171.387	83.5168	171.387	83.5452	171.387	83.4498	171.387	83.4624	171.387	83.4302
177.246	84.8972	177.246	84.91	177.246	84.8688	177.246	84.9051	177.246	84.827	177.246	84.8814	177.246	84.7745	177.246	84.8382	177.246	84.7134	177.246	84.7747	177.246	84.6446	177.246	84.6896	177.246	84.5672	177.246	84.5813	177.246	84.4786	177.246	84.4478	177.246	84.3753	177.246	84.2878	177.246	84.2533	177.246	84.1022	177.246	84.1099	177.246	83.8952	177.246	83.9451	177.246	83.6754	177.246	83.7628	177.246	83.4562	177.246	83.571	177.246	83.2538	177.246	83.3812	177.246	83.0856	177.246	83.2068	177.246	82.9657	177.246	83.0611	177.246	82.9034	177.246	82.956	177.246	82.9011
183.105	84.5067	183.105	84.5359	183.105	84.4707	183.105	84.5573	183.105	84.4296	183.105	84.5701	183.105	84.3854	183.105	84.5735	183.105	84.3401	183.105	84.5651	183.105	84.2937	183.105	84.5409	183.105	84.2441	183.105	84.4959	183.105	84.1862	183.105	84.4242	183.105	84.1129	183.105	84.321	183.105	84.017	183.105	84.1838	183.105	83.8931	183.105	84.0139	183.105	83.7404	183.105	83.8169	183.105	83.5643	183.105	83.6039	183.105	83.3766	183.105	83.39	183.105	83.1943	183.105	83.1925	183.105	83.0364	183.105	83.0289	183.105	82.9199	183.105	82.9131	183.105	82.8571	183.105	82.8544
188.965	84.4958	188.965	84.523	188.965	84.454	188.965	84.5369	188.965	84.3977	188.965	84.5398	188.965	84.3284	188.965	84.5338	188.965	84.2496	188.965	84.5191	188.965	84.1648	188.965	84.4935	188.965	84.077	188.965	84.4522	188.965	83.9872	188.965	84.3884	188.965	83.894	188.965	84.2962	188.965	83.794	188.965	84.1722	188.965	83.6836	188.965	84.0182	188.965	83.561	188.965	83.8414	188.965	83.4287	188.965	83.6537	188.965	83.2946	188.965	83.4693	188.965	83.1703	188.965	83.302	188.965	83.0693	188.965	83.1628	188.965	83.0027	188.965	83.0596	188.965	82.9777	188.965	82.9969
196.289	84.7649	196.289	84.7731	196.289	84.7343	196.289	84.7609	196.289	84.6802	196.289	84.7312	196.289	84.6026	196.289	84.6868	196.289	84.5018	196.289	84.6298	196.289	84.3781	196.289	84.5598	196.289	84.2316	196.289	84.4734	196.289	84.0625	196.289	84.3646	196.289	83.8709	196.289	84.2262	196.289	83.6586	196.289	84.0528	196.289	83.4293	196.289	83.8438	196.289	83.1902	196.289	83.6049	196.289	82.9524	196.289	83.3485	196.289	82.731	196.289	83.0913	196.289	82.5432	196.289	82.851	196.289	82.405	196.289	82.643	196.289	82.3274	196.289	82.4789	196.289	82.3153	196.289	82.3674
203.613	84.6267	203.613	84.6167	203.613	84.6141	203.613	84.5856	203.613	84.5793	203.613	84.537	203.613	84.5241	203.613	84.4753	203.613	84.4507	203.613	84.4043	203.613	84.36	203.613	84.3251	203.613	84.2507	203.613	84.2358	203.613	84.1191	203.613	84.1307	203.613	83.9606	203.613	84.0028	203.613	83.7711	203.613	83.8461	203.613	83.5498	203.613	83.6588	203.613	83.3012	203.613	83.4451	203.613	83.0376	203.613	83.2152	203.613	82.7789	203.613	82.9833	203.613	82.5502	203.613	82.7638	203.613	82.3762	203.613	82.5696	203.613	82.2748	203.613	82.4117	203.613	82.2518	203.613	82.3015
210.938	84.5984	210.938	84.5413	210.938	84.6397	210.938	84.4693	210.938	84.6645	210.938	84.3845	210.938	84.6722	210.938	84.2896	210.938	84.6621	210.938	84.1879	210.938	84.6328	210.938	84.0814	210.938	84.5816	210.938	83.9692	210.938	84.5046	210.938	83.8462	210.938	84.3962	210.938	83.7043	210.938	84.2509	210.938	83.5362	210.938	84.0648	210.938	83.3392	210.938	83.8383	210.938	83.1186	210.938	83.5781	210.938	82.8887	210.938	83.2981	210.938	82.6705	210.938	83.0182	210.938	82.4869	210.938	82.7609	210.938	82.3576	210.938	82.5469	210.938	82.2957	210.938	82.3924	210.938	82.3071
218.262	84.3629	218.262	84.3582	218.262	84.3544	218.262	84.3368	218.262	84.337	218.262	84.2968	218.262	84.3145	218.262	84.239	218.262	84.2884	218.262	84.1657	218.262	84.2578	218.262	84.0797	218.262	84.219	218.262	83.9827	218.262	84.1664	218.262	83.8733	218.262	84.0941	218.262	83.7482	218.262	83.9969	218.262	83.6039	218.262	83.8725	218.262	83.4409	218.262	83.7217	218.262	83.2661	218.262	83.5497	218.262	83.0929	218.262	83.366	218.262	82.9376	218.262	83.1831	218.262	82.8147	218.262	83.0148	218.262	82.7337	218.262	82.8741	218.262	82.699	218.262	82.771	218.262	82.7117
225.586	84.4301	225.586	84.4595	225.586	84.3764	225.586	84.4631	225.586	84.3014	225.586	84.4408	225.586	84.2093	225.586	84.3937	225.586	84.1052	225.586	84.324	225.586	83.9945	225.586	84.2346	225.586	83.8813	225.586	84.1282	225.586	83.7677	225.586	84.0059	225.586	83.6528	225.586	83.8677	225.586	83.5334	225.586	83.7134	225.586	83.4065	225.586	83.5458	225.586	83.2724	225.586	83.3725	225.586	83.1373	225.586	83.2065	225.586	83.0129	225.586	83.0623	225.586	82.9115	225.586	82.9502	225.586	82.8414	225.586	82.8726	225.586	82.803	225.586	82.8245	225.586	82.7908	225.586	82.7986
232.91	84.6277	232.91	84.6309	232.91	84.5933	232.91	84.6059	232.91	84.5269	232.91	84.5566	232.91	84.4296	232.91	84.4872	232.91	84.3039	232.91	84.4002	232.91	84.1518	232.91	84.2961	232.91	83.9742	232.91	84.1729	232.91	83.7715	232.91	84.0265	232.91	83.5452	232.91	83.8526	232.91	83.301	232.91	83.6493	232.91	83.0497	232.91	83.4204	232.91	82.8071	232.91	83.1784	232.91	82.5916	232.91	82.9435	232.91	82.4204	232.91	82.7376	232.91	82.3045	232.91	82.5755	232.91	82.2459	232.91	82.4578	232.91	82.2367	232.91	82.3737	232.91	82.2627	232.91	82.3104
241.699	84.3897	241.699	84.368	241.699	84.3831	241.699	84.319	241.699	84.3494	241.699	84.2458	241.699	84.2912	241.699	84.1534	241.699	84.211	241.699	84.0466	241.699	84.1099	241.699	83.9277	241.699	83.9854	241.699	83.7954	241.699	83.8317	241.699	83.644	241.699	83.6407	241.699	83.466	241.699	83.406	241.699	83.2569	241.699	83.1281	241.699	83.019	241.699	82.8197	241.699	82.7648	241.699	82.5078	241.699	82.5159	241.699	82.2288	241.699	82.2963	241.699	82.0166	241.699	82.1236	241.699	81.8874	241.699	82.0014	241.699	81.8343	241.699	81.9203	241.699	81.8347	241.699	81.8666
250.488	84.35	250.488	84.3392	250.488	84.3229	250.488	84.2909	250.488	84.2611	250.488	84.2085	250.488	84.1701	250.488	84.0979	250.488	84.0571	250.488	83.9659	250.488	83.9284	250.488	83.8188	250.488	83.788	250.488	83.6605	250.488	83.6356	250.488	83.4909	250.488	83.4654	250.488	83.3042	250.488	83.2685	250.488	83.0901	250.488	83.0366	250.488	82.8396	250.488	82.7677	250.488	82.5526	250.488	82.4718	250.488	82.2454	250.488	82.1721	250.488	81.951	250.488	81.8998	250.488	81.7074	250.488	81.6829	250.488	81.5396	250.488	81.5345	250.488	81.4494	250.488	81.4514	250.488	81.4237
259.277	84.5493	259.277	84.5362	259.277	84.5238	259.277	84.4856	259.277	84.4614	259.277	84.4004	259.277	84.3659	259.277	84.2847	259.277	84.2429	259.277	84.1422	259.277	84.099	259.277	83.9746	259.277	83.9408	259.277	83.7822	259.277	83.7734	259.277	83.5658	259.277	83.5977	259.277	83.3293	259.277	83.4087	259.277	83.0812	259.277	83.1979	259.277	82.832	259.277	82.9584	259.277	82.5894	259.277	82.6925	259.277	82.3568	259.277	82.4159	259.277	82.1377	259.277	82.1547	259.277	81.9416	259.277	81.9352	259.277	81.7849	259.277	81.7745	259.277	81.6841	259.277	81.6786	259.277	81.6481
268.066	84.3858	268.066	84.3685	268.066	84.3478	268.066	84.3049	268.066	84.253	268.066	84.2082	268.066	84.1072	268.066	84.0911	268.066	83.9214	268.066	83.9611	268.066	83.7085	268.066	83.8179	268.066	83.4798	268.066	83.6546	268.066	83.2441	268.066	83.4615	268.066	83.0071	268.066	83.2327	268.066	82.7711	268.066	82.9722	268.066	82.5361	268.066	82.6974	268.066	82.3025	268.066	82.4344	268.066	82.0764	268.066	82.2067	268.066	81.8738	268.066	82.0251	268.066	81.7165	268.066	81.8871	268.066	81.621	268.066	81.783	268.066	81.5873	268.066	81.7036	268.066	81.6006	268.066	81.6427
276.855	84.1807	276.855	84.1588	276.855	84.2026	276.855	84.1293	276.855	84.225	276.855	84.081	276.855	84.2391	276.855	84.0035	276.855	84.2277	276.855	83.8899	276.855	84.1682	276.855	83.7356	276.855	84.0377	276.855	83.5363	276.855	83.8198	276.855	83.2877	276.855	83.512	276.855	82.9883	276.855	83.1297	276.855	82.6446	276.855	82.704	276.855	82.278	276.855	82.2709	276.855	81.9283	276.855	81.8597	276.855	81.6426	276.855	81.4898	276.855	81.446	276.855	81.1797	276.855	81.3186	276.855	80.9562	276.855	81.2109	276.855	80.8466	276.855	81.0871	276.855	80.8559	276.855	80.9539
287.109	84.1187	287.109	84.0756	287.109	84.1126	287.109	83.983	287.109	84.0674	287.109	83.8489	287.109	84.0014	287.109	83.6874	287.109	83.9361	287.109	83.5172	287.109	83.8868	287.109	83.357	287.109	83.8543	287.109	83.2169	287.109	83.8196	287.109	83.0893	287.109	83.7485	287.109	82.949	287.109	83.6036	287.109	82.7656	287.109	83.3598	287.109	82.5209	287.109	83.0191	287.109	82.2213	287.109	82.6174	287.109	81.9002	287.109	82.2175	287.109	81.6096	287.109	81.8831	287.109	81.3998	287.109	81.6465	287.109	81.2951	287.109	81.4969	287.109	81.2828	287.109	81.3995	287.109	81.3274
297.363	83.6435	297.363	83.7087	297.363	83.5577	297.363	83.7563	297.363	83.455	297.363	83.794	297.363	83.3432	297.363	83.8268	297.363	83.2305	297.363	83.852	297.363	83.1239	297.363	83.8583	297.363	83.0296	297.363	83.8298	297.363	82.9494	297.363	83.7485	297.363	82.8729	297.363	83.5954	297.363	82.775	297.363	83.3559	297.363	82.6258	297.363	83.0285	297.363	82.4085	297.363	82.6363	297.363	82.133	297.363	82.2288	297.363	81.8339	297.363	81.8671	297.363	81.5571	297.363	81.5923	297.363	81.3428	297.363	81.4056	297.363	81.2142	297.363	81.2818	297.363	81.1729	297.363	81.2024
307.617	82.8798	307.617	82.8184	307.617	82.8371	307.617	82.6516	307.617	82.7181	307.617	82.4108	307.617	82.5704	307.617	82.1629	307.617	82.4487	307.617	81.9983	307.617	82.3958	307.617	81.9928	307.617	82.4257	307.617	82.1608	307.617	82.5222	307.617	82.4436	307.617	82.6508	307.617	82.7452	307.617	82.7729	307.617	82.9758	307.617	82.8528	307.617	83.0738	307.617	82.8622	307.617	83.0118	307.617	82.7846	307.617	82.798	307.617	82.6213	307.617	82.4779	307.617	82.3931	307.617	82.128	307.617	82.1364	307.617	81.8334	307.617	81.8946	307.617	81.6571	307.617	81.7099	307.617	81.6204
319.336	85.0133	319.336	84.9694	319.336	84.9074	319.336	84.7749	319.336	84.653	319.336	84.4267	319.336	84.2569	319.336	83.9225	319.336	83.7387	319.336	83.2687	319.336	83.141	319.336	82.4967	319.336	82.5399	319.336	81.6844	319.336	82.0454	319.336	80.9766	319.336	81.7693	319.336	80.5661	319.336	81.7637	319.336	80.5875	319.336	81.9849	319.336	80.994	319.336	82.3279	319.336	81.591	319.336	82.6909	319.336	82.1853	319.336	83.0079	319.336	82.6685	319.336	83.2489	319.336	83.0135	319.336	83.4067	319.336	83.2397	319.336	83.4871	319.336	83.3813	319.336	83.5025	319.336	83.4655
329.59	84.8231	329.59	84.7733	329.59	84.8166	329.59	84.679	329.59	84.7316	329.59	84.5373	329.59	84.5441	329.59	84.3315	329.59	84.2384	329.59	84.0385	329.59	83.8132	329.59	83.6385	329.59	83.2851	329.59	83.1259	329.59	82.6887	329.59	82.5223	329.59	82.0772	329.59	81.8913	329.59	81.5212	329.59	81.3481	329.59	81.0979	329.59	81.036	329.59	80.871	329.59	81.0458	329.59	80.8708	329.59	81.3383	329.59	81.0834	329.59	81.773	329.59	81.4507	329.59	82.2047	329.59	81.8837	329.59	82.5374	329.59	82.2882	329.59	82.7225	329.59	82.589	329.59	82.7401
341.309	84.7621	341.309	84.7712	341.309	84.6527	341.309	84.6778	341.309	84.4547	341.309	84.4913	341.309	84.1834	341.309	84.23	341.309	83.8522	341.309	83.913	341.309	83.4723	341.309	83.5519	341.309	83.0578	341.309	83.1456	341.309	82.6342	341.309	82.6832	341.309	82.2403	341.309	82.1559	341.309	81.9213	341.309	81.5806	341.309	81.7141	341.309	81.0275	341.309	81.6321	341.309	80.6279	341.309	81.6576	341.309	80.5127	341.309	81.7475	341.309	80.6996	341.309	81.8531	341.309	81.0659	341.309	81.9397	341.309	81.45	341.309	81.9904	341.309	81.746	341.309	81.9923	341.309	81.9214
353.027	84.7135	353.027	84.7282	353.027	84.6462	353.027	84.6871	353.027	84.5181	353.027	84.5767	353.027	84.3148	353.027	84.3824	353.027	84.0199	353.027	84.0985	353.027	83.6142	353.027	83.7325	353.027	83.0772	353.027	83.2976	353.027	82.3975	353.027	82.8064	353.027	81.5972	353.027	82.2764	353.027	80.7586	353.027	81.7499	353.027	80.0302	353.027	81.3059	353.027	79.5801	353.027	81.033	353.027	79.5068	353.027	80.9755	353.027	79.7855	353.027	81.1086	353.027	80.295	353.027	81.3597	353.027	80.8789	353.027	81.6368	353.027	81.3968	353.027	81.844	353.027	81.7517	353.027	81.899
366.211	85.0835	366.211	84.8907	366.211	85.1717	366.211	84.6035	366.211	85.1553	366.211	84.2476	366.211	85.0348	366.211	83.8548	366.211	84.8079	366.211	83.4475	366.211	84.4759	366.211	83.0324	366.211	84.0467	366.211	82.6115	366.211	83.5265	366.211	82.1977	366.211	82.908	366.211	81.8127	366.211	82.1798	366.211	81.4728	366.211	81.3662	366.211	81.1892	366.211	80.5775	366.211	80.9862	366.211	80.0036	366.211	80.8972	366.211	79.7904	366.211	80.9229	366.211	79.9081	366.211	81.0086	366.211	80.2021	366.211	81.0792	366.211	80.5284	366.211	81.0817	366.211	80.8041	366.211	80.9919
379.395	85.2146	379.395	85.2334	379.395	85.1219	379.395	85.16	379.395	84.9759	379.395	84.9762	379.395	84.7951	379.395	84.6638	379.395	84.5862	379.395	84.2086	379.395	84.3385	379.395	83.6078	379.395	84.0307	379.395	82.8742	379.395	83.6472	379.395	82.0383	379.395	83.1882	379.395	81.1591	379.395	82.6698	379.395	80.3461	379.395	82.1229	379.395	79.7633	379.395	81.6031	379.395	79.5621	379.395	81.1984	379.395	79.7665	379.395	80.9996	379.395	80.2465	379.395	81.036	379.395	80.8132	379.395	81.242	379.395	81.3087	379.395	81.5002	379.395	81.6369	379.395	81.7006	379.395	81.7628
392.578	84.7378	392.578	84.749	392.578	84.6829	392.578	84.7262	392.578	84.5653	392.578	84.6612	392.578	84.3708	392.578	84.5306	392.578	84.1003	392.578	84.3073	392.578	83.7685	392.578	83.9715	392.578	83.3926	392.578	83.513	392.578	82.9799	392.578	82.9253	392.578	82.5245	392.578	82.2027	392.578	82.0167	392.578	81.3584	392.578	81.4656	392.578	80.4714	392.578	80.9302	392.578	79.738	392.578	80.5335	392.578	79.4243	392.578	80.4081	392.578	79.6335	392.578	80.5767	392.578	80.1725	392.578	80.9122	392.578	80.7543	392.578	81.2391	392.578	81.1949	392.578	81.4307	392.578	81.4236
405.762	84.7389	405.762	84.7114	405.762	84.6802	405.762	84.6006	405.762	84.5349	405.762	84.4203	405.762	84.2985	405.762	84.1907	405.762	83.9631	405.762	83.9226	405.762	83.5245	405.762	83.6018	405.762	82.988	405.762	83.1909	405.762	82.3752	405.762	82.6486	405.762	81.7311	405.762	81.9621	405.762	81.1243	405.762	81.1826	405.762	80.6301	405.762	80.4449	405.762	80.3067	405.762	79.9293	405.762	80.1919	405.762	79.755	405.762	80.301	405.762	79.9025	405.762	80.5957	405.762	80.2562	405.762	80.9652	405.762	80.6858	405.762	81.271	405.762	81.0774	405.762	81.4096	405.762	81.3393
420.41	84.9979	420.41	84.9464	420.41	84.9789	420.41	84.829	420.41	84.8895	420.41	84.6508	420.41	84.738	420.41	84.4195	420.41	84.5336	420.41	84.1475	420.41	84.2716	420.41	83.8407	420.41	83.9231	420.41	83.4774	420.41	83.438	420.41	83.0033	420.41	82.7594	420.41	82.3587	420.41	81.8484	420.41	81.5305	420.41	80.7218	420.41	80.6203	420.41	79.5104	420.41	79.8912	420.41	78.5145	420.41	79.6424	420.41	78.1127	420.41	79.8938	420.41	78.4184	420.41	80.3643	420.41	79.146	420.41	80.7725	420.41	79.9285	420.41	80.9692	420.41	80.5426	420.41	80.897
435.059	84.3901	435.059	84.3093	435.059	84.4062	435.059	84.1823	435.059	84.3507	435.059	84.0247	435.059	84.2265	435.059	83.8286	435.059	84.0372	435.059	83.5598	435.059	83.7826	435.059	83.1796	435.059	83.4593	435.059	82.6705	435.059	83.0581	435.059	82.0409	435.059	82.5574	435.059	81.3078	435.059	81.9283	435.059	80.4811	435.059	81.1646	435.059	79.5908	435.059	80.3359	435.059	78.7727	435.059	79.6269	435.059	78.3328	435.059	79.2731	435.059	78.5436	435.059	79.3675	435.059	79.2635	435.059	79.773	435.059	80.0595	435.059	80.263	435.059	80.6078	435.059	80.6495	435.059	80.796
451.172	85.1657	451.172	85.1157	451.172	85.1214	451.172	84.9733	451.172	84.9863	451.172	84.7429	451.172	84.7706	451.172	84.435	451.172	84.4809	451.172	84.0672	451.172	84.1094	451.172	83.6497	451.172	83.6358	451.172	83.1615	451.172	83.0445	451.172	82.5465	451.172	82.3341	451.172	81.7515	451.172	81.5129	451.172	80.784	451.172	80.605	451.172	79.7546	451.172	79.6985	451.172	78.8915	451.172	79.0071	451.172	78.5172	451.172	78.7973	451.172	78.8376	451.172	79.1249	451.172	79.638	451.172	79.7596	451.172	80.4595	451.172	80.4193	451.172	80.9886	451.172	80.9148	451.172	81.1307
465.82	84.9439	465.82	84.9046	465.82	84.8978	465.82	84.7703	465.82	84.7845	465.82	84.5516	465.82	84.6209	465.82	84.2777	465.82	84.4176	465.82	83.9751	465.82	84.1731	465.82	83.6434	465.82	83.869	465.82	83.2482	465.82	83.4719	465.82	82.7315	465.82	82.942	465.82	82.0304	465.82	82.2362	465.82	81.1033	465.82	81.3067	465.82	79.9755	465.82	80.1351	465.82	78.8121	465.82	78.8615	465.82	77.9499	465.82	77.9498	465.82	77.6999	465.82	77.8864	465.82	78.0258	465.82	78.459	465.82	78.6108	465.82	79.0869	465.82	79.1518	465.82	79.4482	465.82	79.4621
483.398	84.7449	483.398	84.7793	483.398	84.645	483.398	84.7657	483.398	84.4809	483.398	84.7246	483.398	84.2692	483.398	84.6549	483.398	84.0336	483.398	84.5319	483.398	83.7941	483.398	84.3251	483.398	83.545	483.398	84.0017	483.398	83.2293	483.398	83.5049	483.398	82.7483	483.398	82.7434	483.398	82.0194	483.398	81.6254	483.398	81.0482	483.398	80.144	483.398	79.9863	483.398	78.5332	483.398	79.1337	483.398	77.446	483.398	78.795	483.398	77.5176	483.398	79.0214	483.398	78.4269	483.398	79.5696	483.398	79.4378	483.398	80.1283	483.398	80.1669	483.398	80.481	483.398	80.5123
499.512	84.6343	499.512	84.6054	499.512	84.5724	499.512	84.4898	499.512	84.4186	499.512	84.2855	499.512	84.1928	499.512	83.9974	499.512	83.9276	499.512	83.653	499.512	83.6351	499.512	83.2962	499.512	83.2956	499.512	82.9602	499.512	82.8858	499.512	82.6391	499.512	82.3971	499.512	82.2684	499.512	81.8088	499.512	81.7271	499.512	81.0522	499.512	80.8865	499.512	80.045	499.512	79.7288	499.512	78.8399	499.512	78.5401	499.512	77.8445	499.512	77.9563	499.512	77.7036	499.512	78.3104	499.512	78.44	499.512	79.1396	499.512	79.3907	499.512	79.8684	499.512	80.0418	499.512	80.2046
517.09	84.9273	517.09	84.756	517.09	84.9633	517.09	84.4993	517.09	84.8632	517.09	84.2382	517.09	84.6653	517.09	84.0292	517.09	84.4274	517.09	83.8531	517.09	84.2038	517.09	83.6282	517.09	84.0125	517.09	83.2704	517.09	83.7997	517.09	82.7263	517.09	83.4385	517.09	81.9619	517.09	82.7835	517.09	80.9504	517.09	81.7496	517.09	79.7277	517.09	80.3845	517.09	78.5545	517.09	78.9594	517.09	78.0109	517.09	78.035	517.09	78.463	517.09	78.1239	517.09	79.4913	517.09	79.0368	517.09	80.4937	517.09	80.1388	517.09	81.1492	517.09	80.9695	517.09	81.3228
536.133	84.8256	536.133	84.7753	536.133	84.6759	536.133	84.5433	536.133	84.3386	536.133	84.1697	536.133	83.8645	536.133	83.7187	536.133	83.3274	536.133	83.2726	536.133	82.7882	536.133	82.8953	536.133	82.2717	536.133	82.577	536.133	81.7788	536.133	82.2115	536.133	81.3095	536.133	81.6336	536.133	80.8418	536.133	80.7035	536.133	80.2862	536.133	79.4061	536.133	79.5334	536.133	77.9894	536.133	78.6623	536.133	77.0869	536.133	78.1474	536.133	77.235	536.133	78.4559	536.133	78.069	536.133	79.2504	536.133	78.9315	536.133	79.8853	536.133	79.562	536.133	80.1026	536.133	79.958
555.176	85.3216	555.176	85.3001	555.176	85.2806	555.176	85.2021	555.176	85.1835	555.176	85.0233	555.176	85.0049	555.176	84.7525	555.176	84.7067	555.176	84.3708	555.176	84.2898	555.176	83.9017	555.176	83.8088	555.176	83.4342	555.176	83.3085	555.176	83.0148	555.176	82.7264	555.176	82.5152	555.176	81.872	555.176	81.6747	555.176	80.5113	555.176	80.233	555.176	78.5088	555.176	78.0042	555.176	76.1204	555.176	75.124	555.176	74.5226	555.176	73.3216	555.176	74.9358	555.176	74.7325	555.176	76.5282	555.176	77.0042	555.176	78.0708	555.176	78.5553	555.176	79.0267	555.176	79.2131
574.219	85.3486	574.219	85.2672	574.219	85.2621	574.219	85.0404	574.219	85.0079	574.219	84.691	574.219	84.6458	574.219	84.2806	574.219	84.269	574.219	83.9212	574.219	83.9343	574.219	83.6531	574.219	83.6361	574.219	83.3494	574.219	83.3338	574.219	82.8646	574.219	82.9879	574.219	82.2139	574.219	82.5533	574.219	81.4733	574.219	81.9075	574.219	80.5328	574.219	80.8242	574.219	79.1956	574.219	79.1171	574.219	77.6561	574.219	77.0015	574.219	76.8144	574.219	75.7191	574.219	77.2104	574.219	76.353	574.219	78.1168	574.219	77.6969	574.219	78.82	574.219	78.6707	574.219	79.0391
594.727	85.0796	594.727	85.0788	594.727	84.8858	594.727	84.873	594.727	84.5453	594.727	84.5055	594.727	84.1208	594.727	84.0414	594.727	83.6827	594.727	83.5407	594.727	83.292	594.727	83.1069	594.727	82.9736	594.727	82.8595	594.727	82.7056	594.727	82.7175	594.727	82.4176	594.727	82.3873	594.727	81.9822	594.727	81.6308	594.727	81.2362	594.727	80.4018	594.727	80.0615	594.727	78.8556	594.727	78.5588	594.727	77.4463	594.727	77.3274	594.727	76.9683	594.727	77.2062	594.727	77.7583	594.727	78.0428	594.727	79.0346	594.727	79.0637	594.727	79.9516	594.727	79.8524	594.727	80.2064
615.234	85.2228	615.234	85.2076	615.234	85.1396	615.234	85.085	615.234	84.9379	615.234	84.8301	615.234	84.5942	615.234	84.4434	615.234	84.1217	615.234	83.9597	615.234	83.5841	615.234	83.4088	615.234	83.0393	615.234	82.7948	615.234	82.4674	615.234	82.1118	615.234	81.7975	615.234	81.3476	615.234	80.9818	615.234	80.4605	615.234	79.9924	615.234	79.3423	615.234	78.7941	615.234	77.8196	615.234	77.4215	615.234	75.8901	615.234	76.1962	615.234	74.4648	615.234	75.8309	615.234	74.8724	615.234	76.5984	615.234	76.2268	615.234	77.7022	615.234	77.4313	615.234	78.3257	615.234	78.1986
637.207	85.01	637.207	84.8254	637.207	85.0083	637.207	84.5572	637.207	84.795	637.207	84.2867	637.207	84.4347	637.207	84.0242	637.207	83.9946	637.207	83.7569	637.207	83.5047	637.207	83.4976	637.207	83.0218	637.207	83.2721	637.207	82.6372	637.207	83.0416	637.207	82.3545	637.207	82.6388	637.207	81.9976	637.207	81.834	637.207	81.2499	637.207	80.4617	637.207	79.8212	637.207	78.5386	637.207	77.7402	637.207	76.5397	637.207	75.8135	637.207	75.7114	637.207	75.4019	637.207	76.6313	637.207	76.3557	637.207	78.0582	637.207	77.5869	637.207	78.974	637.207	78.585	637.207	79.1165
659.18	84.6889	659.18	84.5698	659.18	84.6266	659.18	84.2235	659.18	84.4213	659.18	83.7152	659.18	84.0681	659.18	83.1917	659.18	83.6114	659.18	82.7205	659.18	83.1444	659.18	82.2737	659.18	82.6984	659.18	81.841	659.18	82.2349	659.18	81.4495	659.18	81.6745	659.18	81.0905	659.18	80.8846	659.18	80.6112	659.18	79.7649	659.18	79.7343	659.18	78.2628	659.18	78.2865	659.18	76.2669	659.18	76.6322	659.18	74.116	659.18	75.9913	659.18	73.7214	659.18	76.6747	659.18	75.4011	659.18	77.6188	659.18	77.1503	659.18	78.3207	659.18	78.244	659.18	78.5989
682.617	84.4645	682.617	84.5041	682.617	84.1886	682.617	84.3009	682.617	83.7124	682.617	83.8375	682.617	83.1496	682.617	83.1805	682.617	82.6006	682.617	82.5219	682.617	82.1036	682.617	82.0306	682.617	81.7103	682.617	81.7088	682.617	81.445	682.617	81.3804	682.617	81.2321	682.617	80.8097	682.617	80.9412	682.617	79.9071	682.617	80.3326	682.617	78.7039	682.617	79.0292	682.617	77.1201	682.617	76.736	682.617	75.1256	682.617	73.8368	682.617	73.7986	682.617	73.1903	682.617	75.2054	682.617	75.732	682.617	77.7166	682.617	78.1094	682.617	79.3693	682.617	79.472	682.617	79.9006
707.52	84.6733	707.52	84.6197	707.52	84.4938	707.52	84.3271	707.52	84.0995	707.52	83.819	707.52	83.5159	707.52	83.1823	707.52	82.7977	707.52	82.5977	707.52	82.0346	707.52	82.1981	707.52	81.4003	707.52	81.9791	707.52	81.153	707.52	81.9814	707.52	81.2301	707.52	82.0587	707.52	81.1593	707.52	81.6641	707.52	80.5341	707.52	80.2689	707.52	79.1185	707.52	77.5087	707.52	76.7315	707.52	73.2112	707.52	73.6195	707.52	70.6003	707.52	72.3298	707.52	74.0377	707.52	74.6325	707.52	77.2077	707.52	77.3033	707.52	78.93	707.52	78.9609	707.52	79.4774
732.422	84.5251	732.422	84.3669	732.422	84.5744	732.422	84.1238	732.422	84.4518	732.422	83.8104	732.422	84.0404	732.422	83.3168	732.422	83.3183	732.422	82.4912	732.422	82.4725	732.422	81.5392	732.422	81.762	732.422	80.9296	732.422	81.3223	732.422	80.6541	732.422	81.2039	732.422	80.3813	732.422	81.2649	732.422	79.8726	732.422	80.9809	732.422	78.8125	732.422	79.8085	732.422	76.8749	732.422	77.4945	732.422	73.9214	732.422	74.0685	732.422	71.501	732.422	71.5312	732.422	73.2846	732.422	73.5018	732.422	75.6332	732.422	75.7557	732.422	76.7276	732.422	76.7739	732.422	77.0149
757.324	85.3944	757.324	85.2857	757.324	85.1542	757.324	84.8848	757.324	84.586	757.324	84.2797	757.324	83.8207	757.324	83.5831	757.324	83.0097	757.324	82.831	757.324	82.2838	757.324	82.0087	757.324	81.7745	757.324	81.4319	757.324	81.4458	757.324	81.4637	757.324	81.131	757.324	81.6223	757.324	80.8825	757.324	81.267	757.324	80.6848	757.324	80.2499	757.324	80.0839	757.324	78.4974	757.324	78.6226	757.324	75.447	757.324	76.1541	757.324	71.0708	757.324	73.7471	757.324	71.9031	757.324	74.3481	757.324	75.1798	757.324	76.2381	757.324	76.8672	757.324	77.2914	757.324	77.4669
785.156	84.7926	785.156	84.9504	785.156	84.6311	785.156	85.0188	785.156	84.4666	785.156	84.7684	785.156	84.2169	785.156	83.9489	785.156	83.7268	785.156	82.7245	785.156	82.9013	785.156	81.8464	785.156	81.9559	785.156	81.513	785.156	81.377	785.156	81.1725	785.156	81.1731	785.156	80.9097	785.156	80.8513	785.156	80.6869	785.156	80.1408	785.156	79.7011	785.156	78.8251	785.156	77.3854	785.156	76.4559	785.156	73.9048	785.156	72.3636	785.156	71.6636	785.156	67.0003	785.156	73.7536	785.156	71.7239	785.156	76.6354	785.156	76.3703	785.156	78.4375	785.156	78.4693	785.156	79.0381
811.523	84.6164	811.523	84.4959	811.523	84.4332	811.523	84.0887	811.523	83.905	811.523	83.4051	811.523	83.1168	811.523	82.5722	811.523	82.1706	811.523	81.6437	811.523	80.9789	811.523	80.5387	811.523	79.5304	811.523	79.4888	811.523	78.3944	811.523	78.8668	811.523	78.5947	811.523	78.6665	811.523	79.5653	811.523	78.6685	811.523	79.9247	811.523	78.4089	811.523	79.1937	811.523	77.2074	811.523	77.318	811.523	74.3381	811.523	73.9722	811.523	69.4788	811.523	69.4144	811.523	68.1551	811.523	70.4559	811.523	72.6976	811.523	73.7797	811.523	75.6497	811.523	75.9121	811.523	76.6231
840.82	84.8188	840.82	84.7567	840.82	84.7313	840.82	84.5179	840.82	84.4973	840.82	84.0615	840.82	84.0307	840.82	83.2319	840.82	83.3105	840.82	81.9586	840.82	82.4332	840.82	80.5342	840.82	81.3834	840.82	79.3477	840.82	80.1439	840.82	78.5906	840.82	79.3141	840.82	78.8044	840.82	79.6105	840.82	79.3703	840.82	80.0152	840.82	78.8837	840.82	79.2654	840.82	77.1665	840.82	77.2088	840.82	74.3328	840.82	73.8909	840.82	69.3234	840.82	67.9774	840.82	65.8128	840.82	67.0096	840.82	72.0458	840.82	73.6168	840.82	74.9107	840.82	75.839	840.82	75.9179
870.117	84.1297	870.117	84.1374	870.117	84.0235	870.117	83.8647	870.117	83.8477	870.117	83.3947	870.117	83.2651	870.117	82.8695	870.117	82.1539	870.117	82.0637	870.117	80.9061	870.117	80.6689	870.117	79.7928	870.117	78.9097	870.117	78.6712	870.117	77.8176	870.117	77.9724	870.117	77.6147	870.117	78.5754	870.117	77.6021	870.117	79.5523	870.117	77.6906	870.117	79.8023	870.117	77.1376	870.117	78.7438	870.117	74.8101	870.117	75.893	870.117	70.8808	870.117	72.7194	870.117	69.9691	870.117	73.1295	870.117	72.2545	870.117	74.7094	870.117	74.8955	870.117	75.8316	870.117	76.1922
900.879	85.3215	900.879	85.1626	900.879	85.1249	900.879	84.7856	900.879	84.8398	900.879	84.3607	900.879	84.6164	900.879	83.7404	900.879	84.1326	900.879	82.8523	900.879	83.2028	900.879	81.8873	900.879	82.0233	900.879	80.8642	900.879	80.8336	900.879	79.6626	900.879	79.9468	900.879	78.956	900.879	79.5078	900.879	79.2689	900.879	79.3348	900.879	79.3807	900.879	78.7772	900.879	78.3179	900.879	76.8708	900.879	75.6835	900.879	72.9353	900.879	69.9928	900.879	67.1595	900.879	67.4359	900.879	71.6823	900.879	73.6857	900.879	76.8061	900.879	76.4022	900.879	78.6965	900.879	78.1237
933.105	83.9813	933.105	84.2577	933.105	83.9048	933.105	84.394	933.105	83.7155	933.105	83.9888	933.105	83.1958	933.105	83.2019	933.105	82.4668	933.105	82.4472	933.105	81.417	933.105	81.7504	933.105	80.1015	933.105	80.8063	933.105	78.9476	933.105	79.8009	933.105	78.3831	933.105	79.6854	933.105	79.075	933.105	79.7792	933.105	79.6479	933.105	79.2236	933.105	79.0992	933.105	78.8052	933.105	77.7034	933.105	77.2187	933.105	74.6754	933.105	72.2988	933.105	69.0607	933.105	62.4776	933.105	68.5052	933.105	67.904	933.105	72.7822	933.105	73.1276	933.105	75.1201	933.105	75.3103
965.332	85.3051	965.332	85.0546	965.332	85.2151	965.332	84.7209	965.332	84.8813	965.332	84.3795	965.332	84.4516	965.332	83.7822	965.332	83.6048	965.332	82.8425	965.332	82.0775	965.332	81.7466	965.332	80.3155	965.332	80.3267	965.332	79.0061	965.332	78.2139	965.332	78.2235	965.332	77.2639	965.332	78.1868	965.332	78.3228	965.332	78.9627	965.332	78.6366	965.332	79.0592	965.332	77.1734	965.332	77.7448	965.332	75.1186	965.332	74.6384	965.332	71.8418	965.332	67.3764	965.332	68.9017	965.332	68.2618	965.332	74.3014	965.332	73.6263	965.332	77.0649	965.332	76.2552	965.332	77.4742
1,000.49	84.5562	1,000.49	84.2093	1,000.49	84.3763	1,000.49	83.7769	1,000.49	83.7446	1,000.49	83.5968	1,000.49	83.0196	1,000.49	83.195	1,000.49	82.454	1,000.49	82.1274	1,000.49	81.9564	1,000.49	80.8245	1,000.49	80.9067	1,000.49	79.7578	1,000.49	78.974	1,000.49	78.849	1,000.49	77.002	1,000.49	78.5847	1,000.49	77.0622	1,000.49	78.9538	1,000.49	78.4767	1,000.49	78.6728	1,000.49	79.0937	1,000.49	77.7075	1,000.49	78.6851	1,000.49	75.7648	1,000.49	76.9544	1,000.49	71.0887	1,000.49	72.6658	1,000.49	60.7806	1,000.49	68.9971	1,000.49	70.9437	1,000.49	73.9725	1,000.49	75.4422	1,000.49	75.8793	1,000.49	76.2737
1,035.64	84.6887	1,035.64	84.8134	1,035.64	84.4212	1,035.64	84.5001	1,035.64	84.2389	1,035.64	83.9886	1,035.64	84.0035	1,035.64	83.5922	1,035.64	83.3449	1,035.64	82.848	1,035.64	82.1394	1,035.64	81.5095	1,035.64	80.7729	1,035.64	80.0085	1,035.64	79.187	1,035.64	78.4392	1,035.64	76.4004	1,035.64	76.4813	1,035.64	75.3265	1,035.64	77.3024	1,035.64	77.8588	1,035.64	79.1112	1,035.64	78.782	1,035.64	78.6483	1,035.64	77.8705	1,035.64	76.6674	1,035.64	75.7764	1,035.64	74.0823	1,035.64	70.9939	1,035.64	69.4891	1,035.64	59.4922	1,035.64	68.318	1,035.64	69.9166	1,035.64	73.1635	1,035.64	73.8501	1,035.64	74.6308
1,072.27	84.2389	1,072.27	83.8835	1,072.27	84.2296	1,072.27	83.7085	1,072.27	83.6449	1,072.27	83.518	1,072.27	82.7565	1,072.27	82.7522	1,072.27	82.0126	1,072.27	81.6859	1,072.27	81.295	1,072.27	80.5266	1,072.27	79.816	1,072.27	79.3115	1,072.27	77.6063	1,072.27	77.842	1,072.27	75.9218	1,072.27	77.0191	1,072.27	74.251	1,072.27	77.5486	1,072.27	74.4198	1,072.27	77.2572	1,072.27	75.8871	1,072.27	76.677	1,072.27	75.9727	1,072.27	75.9501	1,072.27	73.7055	1,072.27	73.3317	1,072.27	69.0891	1,072.27	69.8327	1,072.27	68.6762	1,072.27	70.8121	1,072.27	73.552	1,072.27	74.032	1,072.27	74.9201	1,072.27	75.0638
1,108.89	84.3296	1,108.89	84.2924	1,108.89	84.2722	1,108.89	83.8171	1,108.89	83.8355	1,108.89	83.0396	1,108.89	82.9916	1,108.89	82.4174	1,108.89	82.2549	1,108.89	81.4072	1,108.89	81.4904	1,108.89	80.0832	1,108.89	80.2843	1,108.89	78.1187	1,108.89	78.2119	1,108.89	75.8313	1,108.89	75.1585	1,108.89	75.0745	1,108.89	73.1525	1,108.89	76.0114	1,108.89	73.6568	1,108.89	77.3457	1,108.89	75.0194	1,108.89	76.8927	1,108.89	74.893	1,108.89	74.5048	1,108.89	73.5021	1,108.89	68.8041	1,108.89	68.9496	1,108.89	64.9516	1,108.89	65.7841	1,108.89	69.0966	1,108.89	71.3506	1,108.89	72.6675	1,108.89	74.3786	1,108.89	74.748
1,148.44	83.0404	1,148.44	83.1576	1,148.44	83.1166	1,148.44	83.2016	1,148.44	83.138	1,148.44	82.6882	1,148.44	82.5061	1,148.44	82.0798	1,148.44	81.2494	1,148.44	81.2282	1,148.44	80.1437	1,148.44	79.2682	1,148.44	79.1518	1,148.44	77.4581	1,148.44	78.0146	1,148.44	75.9809	1,148.44	75.7806	1,148.44	73.9614	1,148.44	72.4799	1,148.44	74.8733	1,148.44	73.7865	1,148.44	75.6745	1,148.44	75.2832	1,148.44	75.5035	1,148.44	74.8444	1,148.44	73.7238	1,148.44	72.2512	1,148.44	69.5682	1,148.44	67.5067	1,148.44	69.0871	1,148.44	64.1534	1,148.44	71.0727	1,148.44	71.3454	1,148.44	73.344	1,148.44	73.6566	1,148.44	73.9011
1,189.45	82.971	1,189.45	82.6937	1,189.45	83.2227	1,189.45	82.4456	1,189.45	83.1247	1,189.45	82.2314	1,189.45	82.7087	1,189.45	81.846	1,189.45	81.8736	1,189.45	80.7662	1,189.45	80.8278	1,189.45	79.083	1,189.45	79.7417	1,189.45	76.9176	1,189.45	78.0985	1,189.45	73.4029	1,189.45	75.3425	1,189.45	70.9014	1,189.45	71.2951	1,189.45	74.5418	1,189.45	69.9056	1,189.45	77.3427	1,189.45	73.122	1,189.45	77.4601	1,189.45	73.5854	1,189.45	74.8899	1,189.45	71.4355	1,189.45	69.0642	1,189.45	65.2626	1,189.45	65.8037	1,189.45	65.6165	1,189.45	72.315	1,189.45	70.4304	1,189.45	74.7306	1,189.45	74.3092	1,189.45	75.3415
1,230.47	83.6783	1,230.47	83.4083	1,230.47	83.3148	1,230.47	82.6264	1,230.47	82.7348	1,230.47	81.7448	1,230.47	81.9374	1,230.47	80.8593	1,230.47	81.0283	1,230.47	80.445	1,230.47	80.4679	1,230.47	79.6234	1,230.47	79.8724	1,230.47	78.0031	1,230.47	78.7508	1,230.47	75.9613	1,230.47	77.2309	1,230.47	72.7618	1,230.47	74.3096	1,230.47	71.3241	1,230.47	73.7145	1,230.47	75.2747	1,230.47	74.8786	1,230.47	76.0458	1,230.47	75.131	1,230.47	73.8727	1,230.47	73.5373	1,230.47	66.4505	1,230.47	67.9521	1,230.47	61.319	1,230.47	60.9892	1,230.47	71.9128	1,230.47	71.4011	1,230.47	76.1731	1,230.47	74.9111	1,230.47	76.5759
1,274.41	83.7822	1,274.41	83.54	1,274.41	83.846	1,274.41	83.0442	1,274.41	83.1816	1,274.41	81.945	1,274.41	82.1281	1,274.41	80.8382	1,274.41	81.0679	1,274.41	80.4162	1,274.41	80.1424	1,274.41	79.9351	1,274.41	79.8271	1,274.41	78.834	1,274.41	78.5436	1,274.41	77.1987	1,274.41	76.2805	1,274.41	74.2857	1,274.41	75.052	1,274.41	69.7973	1,274.41	73.9809	1,274.41	74.149	1,274.41	74.31	1,274.41	76.1474	1,274.41	75.1627	1,274.41	74.495	1,274.41	72.4457	1,274.41	69.304	1,274.41	65.8812	1,274.41	48.2386	1,274.41	61.4814	1,274.41	70.7947	1,274.41	71.9492	1,274.41	74.6968	1,274.41	74.5919	1,274.41	75.7259
1,319.82	84.2883	1,319.82	84.3759	1,319.82	83.6728	1,319.82	83.5368	1,319.82	83.0697	1,319.82	82.4074	1,319.82	81.9862	1,319.82	80.8169	1,319.82	80.3876	1,319.82	79.0726	1,319.82	79.2743	1,319.82	78.5691	1,319.82	78.6801	1,319.82	78.8612	1,319.82	76.6726	1,319.82	77.783	1,319.82	74.8763	1,319.82	73.8789	1,319.82	72.2197	1,319.82	69.902	1,319.82	72.1533	1,319.82	73.9722	1,319.82	75.1431	1,319.82	76.2242	1,319.82	76.3644	1,319.82	75.7835	1,319.82	75.8281	1,319.82	70.9084	1,319.82	70.8024	1,319.82	56.2585	1,319.82	53.7799	1,319.82	69.3642	1,319.82	69.5062	1,319.82	75.5016	1,319.82	74.362	1,319.82	76.6713
1,366.7	84.769	1,366.7	84.6927	1,366.7	84.4198	1,366.7	84.4031	1,366.7	83.4942	1,366.7	83.1283	1,366.7	82.7042	1,366.7	81.5991	1,366.7	81.7964	1,366.7	80.3579	1,366.7	80.5683	1,366.7	79.0254	1,366.7	79.5365	1,366.7	79.2637	1,366.7	78.0471	1,366.7	78.324	1,366.7	76.9235	1,366.7	75.5193	1,366.7	74.7223	1,366.7	72.5017	1,366.7	73.2368	1,366.7	72.2787	1,366.7	75.8966	1,366.7	74.6594	1,366.7	77.5127	1,366.7	76.1631	1,366.7	75.9305	1,366.7	73.1341	1,366.7	72.1125	1,366.7	62.2499	1,366.7	64.004	1,366.7	68.1786	1,366.7	71.4387	1,366.7	73.6868	1,366.7	74.7835	1,366.7	75.6506
1,413.57	84.368	1,413.57	84.6465	1,413.57	84.2614	1,413.57	83.9491	1,413.57	83.5538	1,413.57	82.8869	1,413.57	82.2849	1,413.57	81.6765	1,413.57	81.0432	1,413.57	79.9286	1,413.57	79.1336	1,413.57	78.8806	1,413.57	78.4549	1,413.57	79.182	1,413.57	77.1273	1,413.57	78.0033	1,413.57	76.2457	1,413.57	75.7476	1,413.57	75.2022	1,413.57	71.4518	1,413.57	70.9488	1,413.57	69.0034	1,413.57	74.3329	1,413.57	73.6303	1,413.57	76.1586	1,413.57	75.6033	1,413.57	75.5329	1,413.57	74.2696	1,413.57	73.2799	1,413.57	68.4806	1,413.57	64.3698	1,413.57	59.4608	1,413.57	66.8241	1,413.57	70.8409	1,413.57	72.9982	1,413.57	74.2166
1,463.38	84.1774	1,463.38	83.9626	1,463.38	83.7225	1,463.38	83.6598	1,463.38	83.0756	1,463.38	83.2119	1,463.38	82.5813	1,463.38	81.7397	1,463.38	81.5997	1,463.38	80.3742	1,463.38	79.7036	1,463.38	78.628	1,463.38	78.0818	1,463.38	76.6985	1,463.38	77.707	1,463.38	77.3021	1,463.38	76.5296	1,463.38	75.9425	1,463.38	74.1961	1,463.38	71.4805	1,463.38	67.8918	1,463.38	69.3038	1,463.38	68.8535	1,463.38	72.1422	1,463.38	73.8251	1,463.38	75.0307	1,463.38	75.1468	1,463.38	73.7642	1,463.38	73.2958	1,463.38	67.4606	1,463.38	65.5905	1,463.38	61.7192	1,463.38	62.449	1,463.38	70.2194	1,463.38	70.3764	1,463.38	72.3358
1,516.11	83.1034	1,516.11	82.9304	1,516.11	82.8183	1,516.11	82.3038	1,516.11	82.523	1,516.11	81.8715	1,516.11	81.758	1,516.11	80.9498	1,516.11	80.1122	1,516.11	79.1804	1,516.11	78.607	1,516.11	77.7714	1,516.11	76.6004	1,516.11	76.1391	1,516.11	76.0142	1,516.11	75.9015	1,516.11	76.0283	1,516.11	74.5919	1,516.11	74.4443	1,516.11	71.8746	1,516.11	71.2371	1,516.11	69.0255	1,516.11	68.5198	1,516.11	70.7899	1,516.11	73.5209	1,516.11	73.4781	1,516.11	73.9811	1,516.11	72.3822	1,516.11	73.3459	1,516.11	65.0035	1,516.11	67.0205	1,516.11	52.3162	1,516.11	60.4222	1,516.11	67.3707	1,516.11	67.597	1,516.11	70.8559
1,568.85	81.8075	1,568.85	81.8172	1,568.85	81.8524	1,568.85	81.6506	1,568.85	81.4362	1,568.85	81.2677	1,568.85	80.8051	1,568.85	79.6228	1,568.85	79.8577	1,568.85	78.0939	1,568.85	77.6453	1,568.85	76.4987	1,568.85	75.9611	1,568.85	74.9429	1,568.85	74.0145	1,568.85	74.1634	1,568.85	74.807	1,568.85	72.3384	1,568.85	73.1821	1,568.85	70.2229	1,568.85	71.5532	1,568.85	66.2925	1,568.85	67.5001	1,568.85	70.402	1,568.85	68.3308	1,568.85	72.2435	1,568.85	71.3158	1,568.85	70.9897	1,568.85	70.5716	1,568.85	67.8505	1,568.85	64.805	1,568.85	59.5993	1,568.85	52.6365	1,568.85	68.0795	1,568.85	69.5348	1,568.85	69.9087
1,624.51	81.2779	1,624.51	81.0522	1,624.51	81.8792	1,624.51	80.6197	1,624.51	81.1404	1,624.51	79.4653	1,624.51	79.935	1,624.51	78.0207	1,624.51	79.4395	1,624.51	76.3345	1,624.51	77.8221	1,624.51	74.8375	1,624.51	76.0056	1,624.51	73.4229	1,624.51	74.3423	1,624.51	73.6137	1,624.51	72.9828	1,624.51	72.8319	1,624.51	71.4364	1,624.51	69.6462	1,624.51	69.6854	1,624.51	66.2278	1,624.51	63.0736	1,624.51	70.3501	1,624.51	67.7394	1,624.51	72.4599	1,624.51	72.1472	1,624.51	72.9579	1,624.51	70.6958	1,624.51	69.2182	1,624.51	66.518	1,624.51	57.2415	1,624.51	51.2789	1,624.51	64.8158	1,624.51	66.636	1,624.51	70.0593
1,681.64	81.3922	1,681.64	81.7535	1,681.64	81.2514	1,681.64	80.8999	1,681.64	81.3626	1,681.64	79.7534	1,681.64	80.3383	1,681.64	79.4512	1,681.64	79.3956	1,681.64	77.935	1,681.64	78.4931	1,681.64	76.2659	1,681.64	76.7378	1,681.64	75.2497	1,681.64	75.63	1,681.64	73.3586	1,681.64	73.7722	1,681.64	73.1995	1,681.64	73.3132	1,681.64	71.3453	1,681.64	70.2308	1,681.64	65.3872	1,681.64	63.4805	1,681.64	63.9904	1,681.64	64.8946	1,681.64	71.8245	1,681.64	70.3385	1,681.64	73.5673	1,681.64	71.177	1,681.64	71.7126	1,681.64	67.1398	1,681.64	60.4487	1,681.64	50.5899	1,681.64	52.6827	1,681.64	64.9193	1,681.64	66.4466
1,741.7	82.9598	1,741.7	82.6594	1,741.7	82.6369	1,741.7	82.3379	1,741.7	81.6777	1,741.7	81.5277	1,741.7	81.0986	1,741.7	80.0744	1,741.7	80.0357	1,741.7	79.4507	1,741.7	78.0633	1,741.7	77.5341	1,741.7	77.7531	1,741.7	76.1611	1,741.7	76.2008	1,741.7	75.1767	1,741.7	75.089	1,741.7	72.0706	1,741.7	72.4083	1,741.7	70.746	1,741.7	72.7675	1,741.7	68.7425	1,741.7	69.2427	1,741.7	66.5884	1,741.7	69.5307	1,741.7	70	1,741.7	72.3141	1,741.7	72.6812	1,741.7	71.6688	1,741.7	73.3746	1,741.7	66.5493	1,741.7	60.1601	1,741.7	48.1573	1,741.7	59.6683	1,741.7	65.8914	1,741.7	64.3794
1,803.22	83.2983	1,803.22	83.4916	1,803.22	83.0856	1,803.22	82.8848	1,803.22	82.0604	1,803.22	81.9473	1,803.22	81.0991	1,803.22	81.7742	1,803.22	80.6701	1,803.22	80.1943	1,803.22	79.1651	1,803.22	79.0687	1,803.22	77.7519	1,803.22	77.3671	1,803.22	76.7495	1,803.22	76.5968	1,803.22	77.2052	1,803.22	74.8714	1,803.22	76.1713	1,803.22	74.7053	1,803.22	75.8699	1,803.22	69.7564	1,803.22	72.2916	1,803.22	67.3542	1,803.22	69.3711	1,803.22	69.6834	1,803.22	72.1958	1,803.22	70.34	1,803.22	73.242	1,803.22	72.5056	1,803.22	69.2478	1,803.22	66.9746	1,803.22	57.3077	1,803.22	66.168	1,803.22	62.1453	1,803.22	66.0872
1,866.21	83.3817	1,866.21	83.2722	1,866.21	82.4158	1,866.21	82.4917	1,866.21	81.5073	1,866.21	81.9146	1,866.21	81.207	1,866.21	80.3027	1,866.21	79.8953	1,866.21	79.2663	1,866.21	77.7222	1,866.21	78.4532	1,866.21	76.2608	1,866.21	76.6751	1,866.21	75.5737	1,866.21	75.8905	1,866.21	74.1371	1,866.21	74.9644	1,866.21	71.1977	1,866.21	73.8928	1,866.21	71.2454	1,866.21	72.3822	1,866.21	70.8198	1,866.21	69.2523	1,866.21	67.9228	1,866.21	67.786	1,866.21	69.7018	1,866.21	71.6985	1,866.21	73.3426	1,866.21	69.6042	1,866.21	68.7492	1,866.21	66.7846	1,866.21	53.0665	1,866.21	65.9391	1,866.21	64.2513	1,866.21	65.5235
1,932.13	82.9657	1,932.13	83.0073	1,932.13	82.8377	1,932.13	82.3109	1,932.13	82.2856	1,932.13	81.4633	1,932.13	80.8131	1,932.13	79.8028	1,932.13	79.6175	1,932.13	78.5043	1,932.13	78.2897	1,932.13	77.7451	1,932.13	76.7526	1,932.13	76.2785	1,932.13	75.0922	1,932.13	74.9764	1,932.13	73.3972	1,932.13	74.1099	1,932.13	73.9208	1,932.13	73.0574	1,932.13	72.5999	1,932.13	70.2849	1,932.13	68.2061	1,932.13	68.2989	1,932.13	68.0251	1,932.13	69.7873	1,932.13	69.5377	1,932.13	71.0129	1,932.13	71.0525	1,932.13	71.172	1,932.13	69.0117	1,932.13	64.3471	1,932.13	60.9282	1,932.13	64.6356	1,932.13	64.753	1,932.13	68.3108
1,999.51	83.3415	1,999.51	82.8732	1,999.51	83.1149	1,999.51	82.2503	1,999.51	82.7745	1,999.51	81.5064	1,999.51	81.7999	1,999.51	80.4321	1,999.51	80.8163	1,999.51	79.194	1,999.51	79.0503	1,999.51	77.0095	1,999.51	77.8535	1,999.51	75.1711	1,999.51	75.5909	1,999.51	73.0872	1,999.51	74.2799	1,999.51	73.2251	1,999.51	73.3199	1,999.51	71.8243	1,999.51	71.8015	1,999.51	70.6577	1,999.51	70.8359	1,999.51	69.463	1,999.51	68.8185	1,999.51	68.209	1,999.51	69.7438	1,999.51	69.436	1,999.51	71.4103	1,999.51	68.1328	1,999.51	70.2236	1,999.51	61.6506	1,999.51	62.5853	1,999.51	64.4153	1,999.51	65.7588	1,999.51	67.3815
2,069.82	83.9936	2,069.82	83.5162	2,069.82	83.8133	2,069.82	83.0471	2,069.82	83.0867	2,069.82	82.0125	2,069.82	82.3565	2,069.82	81.0773	2,069.82	80.9285	2,069.82	79.7697	2,069.82	79.7738	2,069.82	78.3725	2,069.82	78.3566	2,069.82	76.0072	2,069.82	77.2569	2,069.82	73.9778	2,069.82	74.8738	2,069.82	73.1152	2,069.82	74.471	2,069.82	72.9031	2,069.82	72.879	2,069.82	70.4258	2,069.82	70.2303	2,069.82	67.9029	2,069.82	68.0027	2,069.82	67.7149	2,069.82	70.0601	2,069.82	69.2664	2,069.82	71.2703	2,069.82	68.2175	2,069.82	68.87	2,069.82	63.2964	2,069.82	63.6417	2,069.82	64.352	2,069.82	66.1149	2,069.82	67.6953
2,143.07	84.0197	2,143.07	83.9219	2,143.07	83.7583	2,143.07	83.4152	2,143.07	83.2235	2,143.07	82.5347	2,143.07	82.3468	2,143.07	81.4237	2,143.07	81.0966	2,143.07	80.3152	2,143.07	79.8997	2,143.07	79.0124	2,143.07	78.5551	2,143.07	77.0619	2,143.07	77.0956	2,143.07	75.634	2,143.07	74.8535	2,143.07	73.6745	2,143.07	73.8532	2,143.07	73.2727	2,143.07	72.0516	2,143.07	71.2041	2,143.07	70.1453	2,143.07	68.1472	2,143.07	68.4941	2,143.07	70.0427	2,143.07	69.4161	2,143.07	70.1243	2,143.07	70.9314	2,143.07	70.1489	2,143.07	69.057	2,143.07	65.474	2,143.07	63.1524	2,143.07	62.3395	2,143.07	66.6683	2,143.07	68.6623
2,219.24	83.4745	2,219.24	83.4689	2,219.24	83.0848	2,219.24	82.9962	2,219.24	82.6367	2,219.24	82.6993	2,219.24	81.5424	2,219.24	81.701	2,219.24	80.462	2,219.24	80.5469	2,219.24	79.0207	2,219.24	79.3293	2,219.24	77.477	2,219.24	77.8646	2,219.24	75.8312	2,219.24	75.2143	2,219.24	74.0438	2,219.24	73.9684	2,219.24	72.4578	2,219.24	73.1072	2,219.24	71.2504	2,219.24	71.1758	2,219.24	69.3599	2,219.24	69.897	2,219.24	67.5606	2,219.24	69.2305	2,219.24	68.0565	2,219.24	70.5907	2,219.24	70.1528	2,219.24	70.5556	2,219.24	69.5186	2,219.24	66.2043	2,219.24	59.4175	2,219.24	66.1521	2,219.24	65.9446	2,219.24	69.6864
2,296.88	82.2863	2,296.88	81.9648	2,296.88	82.068	2,296.88	81.9215	2,296.88	81.2777	2,296.88	81.4243	2,296.88	80.6787	2,296.88	80.9808	2,296.88	79.3646	2,296.88	80.1169	2,296.88	78.2708	2,296.88	78.2861	2,296.88	76.7927	2,296.88	77.4376	2,296.88	75.7703	2,296.88	76.4323	2,296.88	73.6868	2,296.88	73.9359	2,296.88	70.6137	2,296.88	73.2983	2,296.88	71.5137	2,296.88	70.7209	2,296.88	69.0966	2,296.88	68.9444	2,296.88	66.8737	2,296.88	69.7147	2,296.88	67.0043	2,296.88	69.5492	2,296.88	69.7442	2,296.88	69.6775	2,296.88	67.7469	2,296.88	65.7566	2,296.88	61.0122	2,296.88	64.697	2,296.88	64.2399	2,296.88	66.7575
2,378.91	82.378	2,378.91	82.3431	2,378.91	81.919	2,378.91	81.6646	2,378.91	81.7138	2,378.91	81.2822	2,378.91	80.7121	2,378.91	80.4979	2,378.91	80.3354	2,378.91	79.1272	2,378.91	79.2842	2,378.91	78.1155	2,378.91	77.7899	2,378.91	76.854	2,378.91	76.5677	2,378.91	75.0347	2,378.91	74.6633	2,378.91	72.6128	2,378.91	73.2038	2,378.91	71.9298	2,378.91	72.7466	2,378.91	70.5546	2,378.91	70.646	2,378.91	68.6531	2,378.91	66.7602	2,378.91	68.1289	2,378.91	68.4706	2,378.91	69.603	2,378.91	68.4689	2,378.91	68.958	2,378.91	70.0983	2,378.91	63.1945	2,378.91	63.1116	2,378.91	63.5182	2,378.91	60.2503	2,378.91	68.7702
2,462.4	83.6099	2,462.4	83.3293	2,462.4	83.3774	2,462.4	82.7234	2,462.4	82.8828	2,462.4	82.3455	2,462.4	82.5597	2,462.4	81.7932	2,462.4	81.6891	2,462.4	80.8305	2,462.4	81.0253	2,462.4	79.0744	2,462.4	79.7647	2,462.4	77.5234	2,462.4	78.0502	2,462.4	76.4135	2,462.4	76.8397	2,462.4	73.5772	2,462.4	73.6058	2,462.4	71.6079	2,462.4	73.7293	2,462.4	71.9236	2,462.4	72.9284	2,462.4	68.1504	2,462.4	70.8951	2,462.4	68.6122	2,462.4	70.1986	2,462.4	69.0328	2,462.4	70.7468	2,462.4	70.3104	2,462.4	70.8561	2,462.4	65.6406	2,462.4	66.9719	2,462.4	63.6749	2,462.4	66.1862	2,462.4	69.3153
2,548.83	83.811	2,548.83	83.5947	2,548.83	83.9701	2,548.83	83.7161	2,548.83	83.3719	2,548.83	82.9394	2,548.83	83.0247	2,548.83	82.6138	2,548.83	82.0203	2,548.83	82.2006	2,548.83	81.441	2,548.83	80.694	2,548.83	79.7262	2,548.83	78.6734	2,548.83	77.8466	2,548.83	78.5383	2,548.83	76.7831	2,548.83	75.3646	2,548.83	74.2779	2,548.83	73.7737	2,548.83	73.6328	2,548.83	73.9388	2,548.83	73.222	2,548.83	70.4553	2,548.83	70.3133	2,548.83	68.76	2,548.83	69.5484	2,548.83	68.408	2,548.83	69.694	2,548.83	68.9799	2,548.83	70.8049	2,548.83	67.693	2,548.83	66.7111	2,548.83	63.0841	2,548.83	67.52	2,548.83	69.1474
2,639.65	82.4664	2,639.65	82.9838	2,639.65	82.5521	2,639.65	82.704	2,639.65	82.7267	2,639.65	83.0323	2,639.65	82.1085	2,639.65	81.9284	2,639.65	81.5971	2,639.65	81.6895	2,639.65	80.6927	2,639.65	81.2655	2,639.65	78.9779	2,639.65	79.7088	2,639.65	77.2675	2,639.65	77.8138	2,639.65	75.6589	2,639.65	75.9606	2,639.65	73.753	2,639.65	73.0461	2,639.65	70.5371	2,639.65	72.6125	2,639.65	72.2024	2,639.65	72.1573	2,639.65	71.278	2,639.65	70.0347	2,639.65	69.0931	2,639.65	70.3515	2,639.65	67.7072	2,639.65	71.7777	2,639.65	70.204	2,639.65	68.693	2,639.65	65.0277	2,639.65	68.1045	2,639.65	62.5893	2,639.65	68.9456
2,731.93	81.7868	2,731.93	82.2483	2,731.93	81.3585	2,731.93	82.0165	2,731.93	82.038	2,731.93	82.3527	2,731.93	81.4882	2,731.93	81.2867	2,731.93	81.159	2,731.93	80.7234	2,731.93	79.9256	2,731.93	80.1261	2,731.93	78.8416	2,731.93	79.3093	2,731.93	77.2888	2,731.93	76.265	2,731.93	75.2085	2,731.93	74.668	2,731.93	72.8823	2,731.93	71.8234	2,731.93	71.3317	2,731.93	70.226	2,731.93	71.4876	2,731.93	70.4842	2,731.93	69.3079	2,731.93	70.026	2,731.93	70.2307	2,731.93	68.9395	2,731.93	69.3706	2,731.93	70.3095	2,731.93	69.0679	2,731.93	67.9607	2,731.93	67.8038	2,731.93	62.339	2,731.93	64.7623	2,731.93	65.7938
2,828.61	81.5853	2,828.61	81.6207	2,828.61	81.6347	2,828.61	82.363	2,828.61	81.9668	2,828.61	82.5023	2,828.61	82.1422	2,828.61	82.0478	2,828.61	81.8165	2,828.61	80.2814	2,828.61	80.6855	2,828.61	79.4565	2,828.61	79.7735	2,828.61	77.6276	2,828.61	77.9888	2,828.61	74.2159	2,828.61	76.1623	2,828.61	74.1128	2,828.61	74.496	2,828.61	71.9858	2,828.61	72.7323	2,828.61	69.8335	2,828.61	70.4184	2,828.61	69.5637	2,828.61	67.4071	2,828.61	69.2678	2,828.61	70.5359	2,828.61	69.2316	2,828.61	68.9367	2,828.61	67.9817	2,828.61	70.0043	2,828.61	66.8891	2,828.61	67.5262	2,828.61	63.6497	2,828.61	63.0555	2,828.61	68.026
2,928.22	81.709	2,928.22	82.0859	2,928.22	82.5342	2,928.22	82.9535	2,928.22	82.656	2,928.22	83.1092	2,928.22	83.5263	2,928.22	83.1135	2,928.22	83.1558	2,928.22	82.1843	2,928.22	82.1361	2,928.22	80.0549	2,928.22	80.6312	2,928.22	77.9622	2,928.22	78.7796	2,928.22	76.3336	2,928.22	76.7817	2,928.22	75.0233	2,928.22	75.9868	2,928.22	72.536	2,928.22	72.9875	2,928.22	72.7941	2,928.22	70.1905	2,928.22	69.2025	2,928.22	68.3669	2,928.22	69.8422	2,928.22	69.173	2,928.22	69.8652	2,928.22	69.276	2,928.22	68.9159	2,928.22	70.392	2,928.22	68.0882	2,928.22	68.1059	2,928.22	59.7613	2,928.22	66.5988	2,928.22	68.8738
3,030.76	81.9673	3,030.76	82.1762	3,030.76	83.0864	3,030.76	83.149	3,030.76	83.2779	3,030.76	83.7121	3,030.76	84.078	3,030.76	83.7367	3,030.76	83.7139	3,030.76	82.934	3,030.76	82.5346	3,030.76	80.9968	3,030.76	80.8375	3,030.76	78.9323	3,030.76	78.9956	3,030.76	78.0234	3,030.76	76.1883	3,030.76	74.8952	3,030.76	74.9364	3,030.76	73.4425	3,030.76	72.4684	3,030.76	72.2416	3,030.76	72.1717	3,030.76	71.0285	3,030.76	71.5012	3,030.76	68.7726	3,030.76	69.1675	3,030.76	70.1811	3,030.76	70.3492	3,030.76	70.1978	3,030.76	69.8929	3,030.76	68.5761	3,030.76	69.1533	3,030.76	68.6708	3,030.76	66.7911	3,030.76	69.3708
3,137.7	82.4945	3,137.7	82.9541	3,137.7	83.1273	3,137.7	83.5388	3,137.7	83.8519	3,137.7	83.7953	3,137.7	84.1073	3,137.7	83.9098	3,137.7	83.9423	3,137.7	83.7042	3,137.7	82.4363	3,137.7	81.3544	3,137.7	80.3208	3,137.7	79.9246	3,137.7	78.506	3,137.7	77.4267	3,137.7	76.3683	3,137.7	75.7219	3,137.7	75.3689	3,137.7	73.7774	3,137.7	72.4298	3,137.7	71.948	3,137.7	71.436	3,137.7	70.6564	3,137.7	70.2464	3,137.7	69.1361	3,137.7	69.9013	3,137.7	70.2946	3,137.7	69.9661	3,137.7	70.4321	3,137.7	69.895	3,137.7	69.7508	3,137.7	69.4409	3,137.7	66.744	3,137.7	66.0513	3,137.7	70.295
3,249.02	82.8155	3,249.02	83.1896	3,249.02	83.3411	3,249.02	83.8992	3,249.02	83.9781	3,249.02	84.2308	3,249.02	84.1615	3,249.02	83.9957	3,249.02	83.7686	3,249.02	82.9455	3,249.02	82.4809	3,249.02	81.2239	3,249.02	80.628	3,249.02	79.6676	3,249.02	78.5818	3,249.02	77.4699	3,249.02	76.5497	3,249.02	74.7984	3,249.02	75.2319	3,249.02	73.661	3,249.02	73.3587	3,249.02	71.5165	3,249.02	70.9588	3,249.02	70.6948	3,249.02	69.4244	3,249.02	68.2543	3,249.02	69.6948	3,249.02	69.7309	3,249.02	70.9439	3,249.02	70.1097	3,249.02	70.1219	3,249.02	70.6796	3,249.02	69.9526	3,249.02	66.1475	3,249.02	66.9763	3,249.02	68.9884
3,363.28	83.5039	3,363.28	83.584	3,363.28	83.4102	3,363.28	83.7792	3,363.28	84.7241	3,363.28	84.0769	3,363.28	84.6455	3,363.28	83.7191	3,363.28	84.0922	3,363.28	82.0102	3,363.28	82.4623	3,363.28	80.5718	3,363.28	80.8899	3,363.28	78.3908	3,363.28	78.1796	3,363.28	75.9644	3,363.28	76.0568	3,363.28	74.0317	3,363.28	74.1364	3,363.28	73.1027	3,363.28	73.0202	3,363.28	69.7444	3,363.28	72.0898	3,363.28	70.2903	3,363.28	70.2051	3,363.28	66.7609	3,363.28	68.6847	3,363.28	69.4774	3,363.28	70.3572	3,363.28	67.7946	3,363.28	69.5141	3,363.28	69.9419	3,363.28	69.5532	3,363.28	62.4087	3,363.28	66.8261	3,363.28	66.3218
3,481.93	83.752	3,481.93	83.9617	3,481.93	84.2353	3,481.93	84.7401	3,481.93	84.6423	3,481.93	85.2519	3,481.93	84.7694	3,481.93	84.5555	3,481.93	83.5352	3,481.93	82.4517	3,481.93	82.4027	3,481.93	80.999	3,481.93	80.8709	3,481.93	78.7432	3,481.93	78.3115	3,481.93	76.2073	3,481.93	76.4826	3,481.93	73.9475	3,481.93	72.9878	3,481.93	71.6064	3,481.93	71.7468	3,481.93	70.2525	3,481.93	70.6006	3,481.93	70.358	3,481.93	70.8969	3,481.93	69.1687	3,481.93	67.1262	3,481.93	69.8668	3,481.93	68.9232	3,481.93	68.8103	3,481.93	68.5268	3,481.93	69.6755	3,481.93	68.1255	3,481.93	65.6803	3,481.93	63.9775	3,481.93	68.2881
3,604.98	83.5136	3,604.98	83.7053	3,604.98	84.0949	3,604.98	84.5082	3,604.98	84.4695	3,604.98	85.1832	3,604.98	84.9359	3,604.98	84.6424	3,604.98	83.9723	3,604.98	83.1262	3,604.98	83.0571	3,604.98	81.0049	3,604.98	81.112	3,604.98	78.7553	3,604.98	78.8409	3,604.98	77.1075	3,604.98	77.5472	3,604.98	74.6098	3,604.98	74.9965	3,604.98	73.209	3,604.98	72.3803	3,604.98	71.1139	3,604.98	70.1256	3,604.98	68.8615	3,604.98	70.0241	3,604.98	68.4511	3,604.98	67.2839	3,604.98	70.6076	3,604.98	70.5496	3,604.98	69.1434	3,604.98	70.359	3,604.98	70.7626	3,604.98	70.084	3,604.98	66.1037	3,604.98	64.3011	3,604.98	69.4834
3,732.42	84.2368	3,732.42	83.9745	3,732.42	85.2614	3,732.42	84.6068	3,732.42	85.3472	3,732.42	85.1454	3,732.42	85.5544	3,732.42	84.0744	3,732.42	84.8996	3,732.42	83.3147	3,732.42	83.6645	3,732.42	81.5446	3,732.42	81.8109	3,732.42	79.3662	3,732.42	79.2668	3,732.42	77.5363	3,732.42	77.9109	3,732.42	75.1558	3,732.42	75.4536	3,732.42	72.9874	3,732.42	72.657	3,732.42	70.4489	3,732.42	70.6566	3,732.42	68.4845	3,732.42	71.4448	3,732.42	68.0687	3,732.42	68.6092	3,732.42	69.1538	3,732.42	71.6244	3,732.42	69.7025	3,732.42	71.0686	3,732.42	71.6348	3,732.42	71.0183	3,732.42	65.3561	3,732.42	66.1011	3,732.42	68.6119
3,864.26	83.7081	3,864.26	84.268	3,864.26	84.0426	3,864.26	84.8633	3,864.26	85.1307	3,864.26	84.936	3,864.26	85.138	3,864.26	84.7103	3,864.26	84.6641	3,864.26	83.7652	3,864.26	83.167	3,864.26	81.8559	3,864.26	80.9949	3,864.26	79.5758	3,864.26	79.1708	3,864.26	77.7766	3,864.26	76.963	3,864.26	76.2153	3,864.26	74.3163	3,864.26	72.8326	3,864.26	71.8667	3,864.26	71.3862	3,864.26	70.1493	3,864.26	70.0639	3,864.26	69.0453	3,864.26	68.9562	3,864.26	66.8833	3,864.26	68.8108	3,864.26	70.2805	3,864.26	70.0673	3,864.26	69.8761	3,864.26	71.4545	3,864.26	70.9513	3,864.26	64.5948	3,864.26	64.3978	3,864.26	68.2659
4,000.49	83.2703	4,000.49	84.1216	4,000.49	82.9574	4,000.49	84.0878	4,000.49	84.3573	4,000.49	83.9928	4,000.49	84.1067	4,000.49	84.1145	4,000.49	83.5562	4,000.49	82.3971	4,000.49	81.9227	4,000.49	80.6388	4,000.49	80.369	4,000.49	78.7423	4,000.49	79.162	4,000.49	75.9105	4,000.49	76.2793	4,000.49	74.5933	4,000.49	73.9143	4,000.49	72.1111	4,000.49	72.2528	4,000.49	70.5304	4,000.49	69.5842	4,000.49	69.4323	4,000.49	68.5356	4,000.49	66.9585	4,000.49	68.9041	4,000.49	68.8816	4,000.49	67.5929	4,000.49	68.2001	4,000.49	68.9126	4,000.49	70.6962	4,000.49	70.5279	4,000.49	64.2609	4,000.49	63.4205	4,000.49	66.2797
4,141.11	84.8709	4,141.11	84.5705	4,141.11	85.1982	4,141.11	84.7152	4,141.11	84.4793	4,141.11	84.7091	4,141.11	84.5187	4,141.11	83.8592	4,141.11	83.2691	4,141.11	82.4754	4,141.11	81.927	4,141.11	80.9196	4,141.11	81.1897	4,141.11	79.454	4,141.11	80.1745	4,141.11	77.2828	4,141.11	76.8207	4,141.11	74.6754	4,141.11	74.5723	4,141.11	72.8004	4,141.11	73.0049	4,141.11	69.4602	4,141.11	70.7349	4,141.11	68.9883	4,141.11	69.0198	4,141.11	67.4315	4,141.11	67.3952	4,141.11	65.2449	4,141.11	69.4999	4,141.11	68.7554	4,141.11	70.3931	4,141.11	70.0227	4,141.11	71.7706	4,141.11	65.7341	4,141.11	64.2816	4,141.11	67.6271
4,287.6	84.9124	4,287.6	84.1418	4,287.6	84.9506	4,287.6	84.6561	4,287.6	84.1278	4,287.6	83.8939	4,287.6	83.7485	4,287.6	82.3587	4,287.6	83.1061	4,287.6	82.0925	4,287.6	82.1362	4,287.6	80.9202	4,287.6	81.1303	4,287.6	79.8891	4,287.6	79.3538	4,287.6	78.1539	4,287.6	76.3785	4,287.6	74.5772	4,287.6	75.4906	4,287.6	72.6809	4,287.6	72.3345	4,287.6	71.4163	4,287.6	70.3075	4,287.6	71.0831	4,287.6	67.5135	4,287.6	68.7636	4,287.6	68.3777	4,287.6	67.1755	4,287.6	68.9235	4,287.6	69.8393	4,287.6	69.6425	4,287.6	70.1111	4,287.6	70.2619	4,287.6	65.6118	4,287.6	63.3496	4,287.6	68.8745
4,438.48	84.0806	4,438.48	84.6128	4,438.48	83.6419	4,438.48	82.8558	4,438.48	83.8135	4,438.48	82.9818	4,438.48	82.4533	4,438.48	82.6421	4,438.48	83.1759	4,438.48	81.4551	4,438.48	82.58	4,438.48	81.1613	4,438.48	80.5969	4,438.48	79.3522	4,438.48	78.5724	4,438.48	76.6581	4,438.48	76.879	4,438.48	74.5761	4,438.48	74.7724	4,438.48	73.0458	4,438.48	72.5127	4,438.48	71.5535	4,438.48	69.6195	4,438.48	68.4728	4,438.48	68.7322	4,438.48	69.5256	4,438.48	69.2299	4,438.48	68.9622	4,438.48	66.1285	4,438.48	69.7458	4,438.48	68.9772	4,438.48	70.3455	4,438.48	69.1785	4,438.48	63.914	4,438.48	62.9593	4,438.48	65.631
4,595.21	84.2297	4,595.21	83.5183	4,595.21	84.0241	4,595.21	82.9477	4,595.21	82.2613	4,595.21	82.0865	4,595.21	82.9804	4,595.21	82.9121	4,595.21	81.519	4,595.21	83.0525	4,595.21	80.2025	4,595.21	81.0437	4,595.21	79.9381	4,595.21	79.4872	4,595.21	77.8164	4,595.21	77.4977	4,595.21	75.8621	4,595.21	75.0153	4,595.21	74.7068	4,595.21	74.7201	4,595.21	72.5781	4,595.21	68.8261	4,595.21	70.5905	4,595.21	64.787	4,595.21	68.0062	4,595.21	66.3033	4,595.21	65.4121	4,595.21	66.1069	4,595.21	66.508	4,595.21	70.3036	4,595.21	68.894	4,595.21	70.2931	4,595.21	70.0596	4,595.21	67.1107	4,595.21	62.9099	4,595.21	66.0215
4,756.35	84.8696	4,756.35	83.6948	4,756.35	83.7864	4,756.35	83.2898	4,756.35	82.0958	4,756.35	81.916	4,756.35	81.4673	4,756.35	81.988	4,756.35	81.7638	4,756.35	81.5692	4,756.35	81.7013	4,756.35	81.3342	4,756.35	80.4852	4,756.35	79.6171	4,756.35	79.0132	4,756.35	77.4076	4,756.35	77.4371	4,756.35	72.805	4,756.35	74.3992	4,756.35	72.5108	4,756.35	72.1131	4,756.35	70.5172	4,756.35	68.8645	4,756.35	69.4933	4,756.35	67.7789	4,756.35	65.831	4,756.35	68.7165	4,756.35	64.544	4,756.35	66.6059	4,756.35	68.5907	4,756.35	69.0066	4,756.35	69.4928	4,756.35	69.9969	4,756.35	65.6111	4,756.35	62.6937	4,756.35	67.8917
4,924.8	84.7921	4,924.8	84.7715	4,924.8	82.9227	4,924.8	81.2592	4,924.8	82.0081	4,924.8	82.2148	4,924.8	80.9069	4,924.8	82.2029	4,924.8	82.4536	4,924.8	82.2611	4,924.8	83.216	4,924.8	81.5448	4,924.8	81.6849	4,924.8	80.8305	4,924.8	78.9268	4,924.8	76.1736	4,924.8	77.8107	4,924.8	75.4838	4,924.8	74.5279	4,924.8	69.9055	4,924.8	71.156	4,924.8	71.6166	4,924.8	70.5715	4,924.8	66.3073	4,924.8	69.1198	4,924.8	67.7165	4,924.8	65.2817	4,924.8	64.0055	4,924.8	65.3779	4,924.8	68.7808	4,924.8	69.466	4,924.8	67.8226	4,924.8	68.668	4,924.8	67.1	4,924.8	63.5015	4,924.8	64.2816
5,097.66	84.6557	5,097.66	83.6456	5,097.66	84.3482	5,097.66	81.6762	5,097.66	81.5606	5,097.66	80.7729	5,097.66	82.4627	5,097.66	82.6165	5,097.66	82.6506	5,097.66	82.7181	5,097.66	82.1812	5,097.66	82.1529	5,097.66	81.4392	5,097.66	79.7682	5,097.66	79.4274	5,097.66	77.1553	5,097.66	75.8338	5,097.66	75.6492	5,097.66	74.9322	5,097.66	75.6658	5,097.66	71.8792	5,097.66	72.1506	5,097.66	69.5996	5,097.66	67.5738	5,097.66	67.0665	5,097.66	66.179	5,097.66	67.0347	5,097.66	67.8974	5,097.66	67.4103	5,097.66	69.8757	5,097.66	69.1351	5,097.66	68.388	5,097.66	69.7328	5,097.66	68.0263	5,097.66	66.0152	5,097.66	66.7708
5,277.83	85.1534	5,277.83	84.3126	5,277.83	83.8936	5,277.83	83.2466	5,277.83	82.287	5,277.83	82.8115	5,277.83	81.9669	5,277.83	83.6348	5,277.83	82.6793	5,277.83	83.1761	5,277.83	82.603	5,277.83	81.3564	5,277.83	80.8738	5,277.83	77.4743	5,277.83	78.7179	5,277.83	77.5093	5,277.83	76.4171	5,277.83	72.7333	5,277.83	73.563	5,277.83	72.2385	5,277.83	70.8738	5,277.83	69.497	5,277.83	67.2998	5,277.83	67.0771	5,277.83	67.8867	5,277.83	64.552	5,277.83	65.1345	5,277.83	61.5279	5,277.83	66.6411	5,277.83	65.9556	5,277.83	70.1375	5,277.83	67.8698	5,277.83	68.3046	5,277.83	65.2024	5,277.83	65.6636	5,277.83	61.3202
5,463.87	85.3057	5,463.87	84.4716	5,463.87	83.2241	5,463.87	82.596	5,463.87	82.3267	5,463.87	82.6909	5,463.87	81.5031	5,463.87	83.0573	5,463.87	83.2482	5,463.87	83.2711	5,463.87	83.3283	5,463.87	82.1426	5,463.87	81.2883	5,463.87	81.4666	5,463.87	79.0175	5,463.87	78.6989	5,463.87	76.8907	5,463.87	76.7306	5,463.87	72.7257	5,463.87	68.5578	5,463.87	71.5214	5,463.87	70.1203	5,463.87	69.8275	5,463.87	66.3141	5,463.87	64.9036	5,463.87	67.6536	5,463.87	61.1002	5,463.87	64.9655	5,463.87	62.3858	5,463.87	69.7294	5,463.87	68.7894	5,463.87	67.6235	5,463.87	67.5804	5,463.87	68.2802	5,463.87	62.8222	5,463.87	61.8319
5,657.23	85.2438	5,657.23	84.971	5,657.23	84.8574	5,657.23	83.4619	5,657.23	82.5384	5,657.23	82.135	5,657.23	83.2822	5,657.23	82.4948	5,657.23	82.7347	5,657.23	82.1139	5,657.23	81.7226	5,657.23	80.7996	5,657.23	80.8663	5,657.23	79.1879	5,657.23	79.394	5,657.23	75.2574	5,657.23	73.4189	5,657.23	73.842	5,657.23	71.914	5,657.23	71.4403	5,657.23	69.7024	5,657.23	68.0136	5,657.23	67.448	5,657.23	66.6806	5,657.23	65.0467	5,657.23	65.9573	5,657.23	66.0987	5,657.23	65.4747	5,657.23	64.5447	5,657.23	68.309	5,657.23	66.6283	5,657.23	67.1048	5,657.23	65.043	5,657.23	68.8748	5,657.23	66.4702	5,657.23	61.3299
5,856.45	85.2213	5,856.45	84.7283	5,856.45	83.8275	5,856.45	83.5127	5,856.45	83.5056	5,856.45	82.6795	5,856.45	81.762	5,856.45	83.3358	5,856.45	82.3766	5,856.45	82.321	5,856.45	81.2303	5,856.45	81.1525	5,856.45	80.3725	5,856.45	77.0376	5,856.45	77.3647	5,856.45	76.4833	5,856.45	75.8084	5,856.45	71.6525	5,856.45	72.3292	5,856.45	72.095	5,856.45	69.9697	5,856.45	66.9367	5,856.45	67.6085	5,856.45	66.4664	5,856.45	66.3444	5,856.45	65.9307	5,856.45	67.2243	5,856.45	58.8016	5,856.45	62.7795	5,856.45	62.949	5,856.45	66.0526	5,856.45	67.6631	5,856.45	68.5998	5,856.45	66.1287	5,856.45	66.0714	5,856.45	60.1168
6,062.99	84.8287	6,062.99	84.2891	6,062.99	84.3083	6,062.99	83.301	6,062.99	83.5432	6,062.99	82.8194	6,062.99	82.5681	6,062.99	81.9333	6,062.99	82.2205	6,062.99	81.2944	6,062.99	81.5901	6,062.99	80.046	6,062.99	79.8977	6,062.99	79.1537	6,062.99	79.0803	6,062.99	75.5302	6,062.99	75.8332	6,062.99	72.4464	6,062.99	73.3327	6,062.99	69.4468	6,062.99	69.2047	6,062.99	66.6727	6,062.99	68.3289	6,062.99	64.9892	6,062.99	64.4578	6,062.99	66.976	6,062.99	65.7924	6,062.99	64.5411	6,062.99	56.1301	6,062.99	65.7216	6,062.99	66.1902	6,062.99	65.4129	6,062.99	68.1705	6,062.99	65.4089	6,062.99	65.4832	6,062.99	60.6831
6,276.86	83.3008	6,276.86	83.4161	6,276.86	83.8094	6,276.86	83.2075	6,276.86	82.7612	6,276.86	82.3296	6,276.86	82.4854	6,276.86	81.9522	6,276.86	81.2264	6,276.86	81.5228	6,276.86	79.7336	6,276.86	79.9521	6,276.86	79.0315	6,276.86	79.4592	6,276.86	77.225	6,276.86	75.6182	6,276.86	74.0826	6,276.86	73.8638	6,276.86	72.8611	6,276.86	70.1307	6,276.86	69.4906	6,276.86	68.3452	6,276.86	67.1338	6,276.86	66.1912	6,276.86	66.6948	6,276.86	62.2706	6,276.86	64.3269	6,276.86	62.6658	6,276.86	62.3709	6,276.86	65.6506	6,276.86	66.3827	6,276.86	65.3257	6,276.86	65.7652	6,276.86	66.7788	6,276.86	64.1598	6,276.86	60.3688
6,498.05	83.2886	6,498.05	83.8046	6,498.05	83.3891	6,498.05	83.6911	6,498.05	83.5875	6,498.05	82.2897	6,498.05	81.1983	6,498.05	81.4303	6,498.05	81.8539	6,498.05	80.2185	6,498.05	81.2203	6,498.05	79.8633	6,498.05	79.0845	6,498.05	76.4333	6,498.05	76.4885	6,498.05	74.7946	6,498.05	74.3131	6,498.05	71.6544	6,498.05	71.8288	6,498.05	70.6501	6,498.05	67.8689	6,498.05	68.8511	6,498.05	66.9624	6,498.05	65.312	6,498.05	64.764	6,498.05	60.2016	6,498.05	60.0922	6,498.05	64.8517	6,498.05	62.7679	6,498.05	65.0221	6,498.05	66.1415	6,498.05	66.3809	6,498.05	67.3764	6,498.05	63.7028	6,498.05	64.1767	6,498.05	56.716
6,726.56	83.1984	6,726.56	83.8272	6,726.56	84.5514	6,726.56	84.0112	6,726.56	83.5495	6,726.56	82.6686	6,726.56	82.1851	6,726.56	81.3215	6,726.56	80.8688	6,726.56	82.0379	6,726.56	80.8451	6,726.56	80.1355	6,726.56	80.1688	6,726.56	78.4863	6,726.56	78.303	6,726.56	75.9668	6,726.56	74.6824	6,726.56	73.563	6,726.56	71.5964	6,726.56	68.4302	6,726.56	69.6007	6,726.56	68.5812	6,726.56	67.973	6,726.56	65.0125	6,726.56	62.2278	6,726.56	62.0187	6,726.56	63.6319	6,726.56	61.5	6,726.56	60.9562	6,726.56	62.5857	6,726.56	65.9286	6,726.56	64.2181	6,726.56	65.1616	6,726.56	65.7549	6,726.56	64.1653	6,726.56	55.5719
6,963.87	82.7648	6,963.87	83.0073	6,963.87	83.4276	6,963.87	83.8435	6,963.87	83.6813	6,963.87	81.861	6,963.87	81.423	6,963.87	80.8346	6,963.87	80.9021	6,963.87	79.9312	6,963.87	80.4591	6,963.87	79.6862	6,963.87	79.142	6,963.87	78.0637	6,963.87	76.4482	6,963.87	75.2582	6,963.87	74.2281	6,963.87	71.439	6,963.87	71.0408	6,963.87	70.169	6,963.87	68.5388	6,963.87	64.9442	6,963.87	65.9215	6,963.87	62.3392	6,963.87	64.1586	6,963.87	63.1024	6,963.87	61.9479	6,963.87	61.7876	6,963.87	63.8738	6,963.87	63.2963	6,963.87	65.0391	6,963.87	64.6121	6,963.87	66.095	6,963.87	65.6698	6,963.87	64.2562	6,963.87	49.4858
7,209.96	82.4768	7,209.96	83.5127	7,209.96	83.4418	7,209.96	84.0437	7,209.96	83.8434	7,209.96	82.7073	7,209.96	81.5072	7,209.96	81.8156	7,209.96	80.4712	7,209.96	80.9372	7,209.96	81.1115	7,209.96	80.4212	7,209.96	79.4475	7,209.96	78.2293	7,209.96	77.3767	7,209.96	75.1438	7,209.96	72.9508	7,209.96	72.1606	7,209.96	70.7066	7,209.96	68.7834	7,209.96	68.0876	7,209.96	66.7066	7,209.96	66.3654	7,209.96	62.1165	7,209.96	61.7637	7,209.96	59.5224	7,209.96	64.8522	7,209.96	57.9678	7,209.96	59.5458	7,209.96	61.4703	7,209.96	64.3779	7,209.96	65.7115	7,209.96	64.5079	7,209.96	64.4324	7,209.96	64.7638	7,209.96	51.7346
7,464.84	82.0004	7,464.84	82.9276	7,464.84	83.2478	7,464.84	83.8627	7,464.84	83.5788	7,464.84	82.1806	7,464.84	82.1528	7,464.84	81.4305	7,464.84	80.6759	7,464.84	81.031	7,464.84	79.5565	7,464.84	78.7664	7,464.84	78.7392	7,464.84	76.3783	7,464.84	76.2605	7,464.84	74.1806	7,464.84	73.5858	7,464.84	71.7551	7,464.84	70.2209	7,464.84	68.3136	7,464.84	67.827	7,464.84	63.6366	7,464.84	63.8994	7,464.84	61.0694	7,464.84	63.3632	7,464.84	62.9815	7,464.84	61.1809	7,464.84	57.111	7,464.84	62.4362	7,464.84	60.8195	7,464.84	61.2704	7,464.84	64.5005	7,464.84	61.0579	7,464.84	65.3098	7,464.84	62.9859	7,464.84	51.0435
7,727.05	82.577	7,727.05	82.4324	7,727.05	83.0596	7,727.05	82.8814	7,727.05	82.8176	7,727.05	82.3987	7,727.05	81.1939	7,727.05	81.1027	7,727.05	81.0296	7,727.05	79.9068	7,727.05	79.6651	7,727.05	79.1231	7,727.05	78.2792	7,727.05	76.6014	7,727.05	76.3074	7,727.05	74.244	7,727.05	73.0442	7,727.05	71.6831	7,727.05	70.2726	7,727.05	68.4518	7,727.05	66.9787	7,727.05	65.6908	7,727.05	63.7007	7,727.05	63.1622	7,727.05	63.4968	7,727.05	61.2555	7,727.05	61.6614	7,727.05	55.2575	7,727.05	55.4207	7,727.05	61.3698	7,727.05	60.2225	7,727.05	65.3379	7,727.05	62.6222	7,727.05	63.1785	7,727.05	64.5621	7,727.05	49.5748
7,999.51	83.0942	7,999.51	82.7936	7,999.51	83.2719	7,999.51	83.7603	7,999.51	83.4333	7,999.51	82.651	7,999.51	81.7045	7,999.51	81.519	7,999.51	80.0238	7,999.51	80.5161	7,999.51	78.8011	7,999.51	79.0669	7,999.51	77.4391	7,999.51	77.1367	7,999.51	76.3336	7,999.51	74.5316	7,999.51	73.5374	7,999.51	71.2756	7,999.51	70.9289	7,999.51	67.0478	7,999.51	66.5402	7,999.51	64.8076	7,999.51	64.0137	7,999.51	64.341	7,999.51	60.9052	7,999.51	60.0384	7,999.51	54.2655	7,999.51	58.1788	7,999.51	56.7712	7,999.51	55.0383	7,999.51	49.1805	7,999.51	63.036	7,999.51	60.2452	7,999.51	64.0861	7,999.51	60.5353	7,999.51	45.8874
8,282.23	83.3714	8,282.23	83.3913	8,282.23	83.2515	8,282.23	82.7683	8,282.23	82.831	8,282.23	81.9941	8,282.23	81.6736	8,282.23	80.427	8,282.23	80.0349	8,282.23	78.8705	8,282.23	78.7452	8,282.23	77.6627	8,282.23	77.6262	8,282.23	75.8774	8,282.23	75.7787	8,282.23	73.8253	8,282.23	72.9292	8,282.23	70.0182	8,282.23	69.2499	8,282.23	67.3538	8,282.23	66.6874	8,282.23	64.4964	8,282.23	63.8299	8,282.23	62.5292	8,282.23	61.3517	8,282.23	57.7351	8,282.23	54.7726	8,282.23	54.3653	8,282.23	50.4551	8,282.23	56.6903	8,282.23	59.7587	8,282.23	62.9087	8,282.23	60.8178	8,282.23	62.637	8,282.23	59.4947	8,282.23	47.423
8,573.73	84.4249	8,573.73	83.4998	8,573.73	83.313	8,573.73	83.3868	8,573.73	83.4581	8,573.73	82.0823	8,573.73	82.1839	8,573.73	80.5599	8,573.73	80.1383	8,573.73	79.0173	8,573.73	78.8098	8,573.73	77.9701	8,573.73	78.0018	8,573.73	76.7902	8,573.73	75.5422	8,573.73	73.2886	8,573.73	72.0777	8,573.73	68.6661	8,573.73	69.2061	8,573.73	65.7118	8,573.73	65.4394	8,573.73	63.6603	8,573.73	63.7849	8,573.73	60.5805	8,573.73	60.2205	8,573.73	54.9446	8,573.73	56.538	8,573.73	57.6532	8,573.73	49.7974	8,573.73	48.5428	8,573.73	53.8592	8,573.73	61.1312	8,573.73	57.7457	8,573.73	61.4567	8,573.73	59.6445	8,573.73	48.9526
8,876.95	83.7966	8,876.95	83.0895	8,876.95	83.1071	8,876.95	82.9837	8,876.95	82.828	8,876.95	82.0837	8,876.95	81.6543	8,876.95	80.2134	8,876.95	79.8131	8,876.95	78.4408	8,876.95	78.8664	8,876.95	77.4319	8,876.95	77.4218	8,876.95	74.7687	8,876.95	74.1819	8,876.95	70.8864	8,876.95	70.2598	8,876.95	68.0758	8,876.95	66.4172	8,876.95	64.6236	8,876.95	64.5494	8,876.95	60.4022	8,876.95	60.5847	8,876.95	58.5627	8,876.95	60.7007	8,876.95	54.3294	8,876.95	55.7077	8,876.95	54.3631	8,876.95	46.4799	8,876.95	49.9985	8,876.95	53.3773	8,876.95	58.5166	8,876.95	58.3941	8,876.95	59.4025	8,876.95	57.8583	8,876.95	45.7578
9,188.96	84.428	9,188.96	83.7157	9,188.96	83.5496	9,188.96	83.1641	9,188.96	83.038	9,188.96	81.7094	9,188.96	81.6036	9,188.96	80.1466	9,188.96	79.8873	9,188.96	78.5935	9,188.96	78.6074	9,188.96	76.959	9,188.96	76.8677	9,188.96	74.3072	9,188.96	73.9179	9,188.96	70.5401	9,188.96	70.0563	9,188.96	66.125	9,188.96	66.8689	9,188.96	62.2241	9,188.96	62.9328	9,188.96	61.587	9,188.96	59.9139	9,188.96	58.4918	9,188.96	60.2965	9,188.96	52.1911	9,188.96	53.9845	9,188.96	51.9317	9,188.96	47.8467	9,188.96	54.0397	9,188.96	48.1749	9,188.96	55.5915	9,188.96	57.9663	9,188.96	58.1883	9,188.96	55.6689	9,188.96	41.7375
9,514.16	84.0364	9,514.16	83.3413	9,514.16	83.1901	9,514.16	82.6104	9,514.16	82.6361	9,514.16	81.2452	9,514.16	81.2295	9,514.16	79.956	9,514.16	79.6002	9,514.16	78.1387	9,514.16	77.9603	9,514.16	76.2518	9,514.16	75.8835	9,514.16	72.928	9,514.16	73.0883	9,514.16	69.3958	9,514.16	68.9266	9,514.16	66.4091	9,514.16	65.9386	9,514.16	62.3065	9,514.16	62.2557	9,514.16	60.1294	9,514.16	59.2858	9,514.16	54.469	9,514.16	57.2412	9,514.16	54.9934	9,514.16	51.1974	9,514.16	53.7963	9,514.16	50.3071	9,514.16	52.6882	9,514.16	47.7998	9,514.16	54.4752	9,514.16	57.1364	9,514.16	54.1285	9,514.16	54.0325	9,514.16	46.4692
9,849.61	84.1882	9,849.61	83.4003	9,849.61	83.4092	9,849.61	82.5835	9,849.61	82.4023	9,849.61	81.1372	9,849.61	81.1144	9,849.61	79.716	9,849.61	79.756	9,849.61	77.7661	9,849.61	77.6406	9,849.61	75.3822	9,849.61	75.4952	9,849.61	72.0511	9,849.61	71.9008	9,849.61	68.9284	9,849.61	68.915	9,849.61	63.6075	9,849.61	64.7969	9,849.61	62.1219	9,849.61	62.5366	9,849.61	58.8433	9,849.61	59.4603	9,849.61	57.2829	9,849.61	56.8497	9,849.61	55.3486	9,849.61	47.5304	9,849.61	52.8876	9,849.61	41.6051	9,849.61	50.9254	9,849.61	49.0572	9,849.61	54.0821	9,849.61	56.3326	9,849.61	53.047	9,849.61	55.1878	9,849.61	44.1464
10,196.8	84.2266	10,196.8	83.5928	10,196.8	83.6021	10,196.8	82.5615	10,196.8	82.3626	10,196.8	81.2409	10,196.8	81.0574	10,196.8	79.4551	10,196.8	79.5803	10,196.8	76.745	10,196.8	77.4332	10,196.8	74.5844	10,196.8	75.1674	10,196.8	71.4881	10,196.8	71.5125	10,196.8	67.6084	10,196.8	68.3149	10,196.8	64.0303	10,196.8	64.3103	10,196.8	61.1166	10,196.8	61.8187	10,196.8	57.8794	10,196.8	59.4595	10,196.8	55.892	10,196.8	55.9447	10,196.8	53.0649	10,196.8	53.5417	10,196.8	52.7619	10,196.8	49.5475	10,196.8	51.8032	10,196.8	50.2372	10,196.8	53.6114	10,196.8	56.8228	10,196.8	53.0585	10,196.8	53.814	10,196.8	45.3566
10,555.7	84.4868	10,555.7	83.8497	10,555.7	83.8273	10,555.7	82.383	10,555.7	82.2792	10,555.7	81.0577	10,555.7	81.1637	10,555.7	79.4123	10,555.7	79.1722	10,555.7	76.5441	10,555.7	76.8563	10,555.7	73.5503	10,555.7	74.7921	10,555.7	70.6461	10,555.7	71.7973	10,555.7	67.286	10,555.7	68.678	10,555.7	64.4395	10,555.7	64.7803	10,555.7	61.0018	10,555.7	62.367	10,555.7	57.0677	10,555.7	57.7551	10,555.7	54.5274	10,555.7	56.9327	10,555.7	52.4934	10,555.7	53.9731	10,555.7	52.9849	10,555.7	52.1161	10,555.7	51.1626	10,555.7	45.7557	10,555.7	53.4365	10,555.7	56.266	10,555.7	53.0406	10,555.7	51.5648	10,555.7	44.7788
10,927.7	84.5059	10,927.7	84.0341	10,927.7	83.8656	10,927.7	82.4163	10,927.7	82.417	10,927.7	81.3518	10,927.7	81.3854	10,927.7	79.2468	10,927.7	78.8137	10,927.7	75.6383	10,927.7	76.2955	10,927.7	73.8181	10,927.7	74.4291	10,927.7	70.5747	10,927.7	71.4541	10,927.7	66.9991	10,927.7	67.6589	10,927.7	63.6002	10,927.7	64.085	10,927.7	60.5323	10,927.7	60.7448	10,927.7	57.0368	10,927.7	58.8471	10,927.7	54.2313	10,927.7	56.9647	10,927.7	53.825	10,927.7	50.1386	10,927.7	52.2291	10,927.7	50.3146	10,927.7	47.9091	10,927.7	46.8987	10,927.7	52.0956	10,927.7	56.2689	10,927.7	51.1201	10,927.7	50.5685	10,927.7	40.5322
11,313	84.5391	11,313	83.9663	11,313	84.0874	11,313	82.6239	11,313	82.1815	11,313	81.0926	11,313	81.0555	11,313	78.6855	11,313	78.215	11,313	75.8749	11,313	75.7127	11,313	73.2762	11,313	73.7711	11,313	70.2975	11,313	70.5176	11,313	66.6687	11,313	66.1898	11,313	64.042	11,313	62.4626	11,313	59.723	11,313	60.4503	11,313	56.6612	11,313	55.345	11,313	54.7083	11,313	54.5866	11,313	54.0451	11,313	54.4887	11,313	49.5339	11,313	52.5172	11,313	47.8072	11,313	48.0706	11,313	50.7424	11,313	54.3489	11,313	48.7551	11,313	49.2314	11,313	39.1594
11,712.9	84.759	11,712.9	84.2468	11,712.9	84.2209	11,712.9	82.8109	11,712.9	82.5424	11,712.9	81.1628	11,712.9	80.8958	11,712.9	78.443	11,712.9	78.0083	11,712.9	75.2091	11,712.9	75.2038	11,712.9	72.6969	11,712.9	72.6175	11,712.9	69.4201	11,712.9	69.7355	11,712.9	66.2756	11,712.9	64.6551	11,712.9	61.8291	11,712.9	60.7933	11,712.9	58.0553	11,712.9	57.175	11,712.9	54.4209	11,712.9	52.5851	11,712.9	53.1528	11,712.9	52.3018	11,712.9	52.5051	11,712.9	52.002	11,712.9	49.3777	11,712.9	50.8611	11,712.9	47.3256	11,712.9	46.4251	11,712.9	50.2784	11,712.9	52.5393	11,712.9	49.4839	11,712.9	48.5064	11,712.9	40.0524
12,126	84.5826	12,126	84.2147	12,126	84.0101	12,126	82.6724	12,126	82.4736	12,126	80.9672	12,126	80.4067	12,126	78.2989	12,126	77.174	12,126	74.4385	12,126	73.8815	12,126	71.9332	12,126	71.213	12,126	67.6238	12,126	67.9965	12,126	64.7399	12,126	63.0445	12,126	60.2676	12,126	59.9134	12,126	55.7546	12,126	54.8278	12,126	54.4124	12,126	53.0553	12,126	52.0166	12,126	51.028	12,126	50.8042	12,126	49.0892	12,126	45.2595	12,126	48.8736	12,126	45.8008	12,126	43.5733	12,126	49.0564	12,126	51.0943	12,126	48.1024	12,126	45.4821	12,126	31.5448
12,553.7	84.3588	12,553.7	83.9238	12,553.7	83.7351	12,553.7	82.7689	12,553.7	82.2379	12,553.7	80.7178	12,553.7	79.6946	12,553.7	78.1591	12,553.7	76.4037	12,553.7	74.2536	12,553.7	72.4846	12,553.7	71.7288	12,553.7	69.8044	12,553.7	68.571	12,553.7	65.5583	12,553.7	64.321	12,553.7	61.443	12,553.7	61.1471	12,553.7	57.2408	12,553.7	57.3713	12,553.7	54.7624	12,553.7	54.8707	12,553.7	51.2577	12,553.7	53.0042	12,553.7	49.6475	12,553.7	52.8028	12,553.7	50.5405	12,553.7	47.1009	12,553.7	46.0303	12,553.7	43.0386	12,553.7	44.8484	12,553.7	48.6823	12,553.7	49.1874	12,553.7	46.8569	12,553.7	43.9229	12,553.7	42.023
12,996.1	84.7362	12,996.1	84.2685	12,996.1	84.0699	12,996.1	83.1438	12,996.1	82.4404	12,996.1	80.8153	12,996.1	79.5513	12,996.1	78.5515	12,996.1	76.201	12,996.1	74.3785	12,996.1	71.7912	12,996.1	71.9404	12,996.1	68.534	12,996.1	68.6442	12,996.1	63.9037	12,996.1	64.9184	12,996.1	58.8452	12,996.1	60.7332	12,996.1	56.2711	12,996.1	57.6374	12,996.1	51.5918	12,996.1	54.6753	12,996.1	48.5569	12,996.1	53.3462	12,996.1	50.3347	12,996.1	48.603	12,996.1	51.599	12,996.1	48.347	12,996.1	47.7799	12,996.1	45.5169	12,996.1	45.9009	12,996.1	49.141	12,996.1	50.9272	12,996.1	46.8764	12,996.1	43.6646	12,996.1	42.4589
13,454.6	85.3162	13,454.6	84.8499	13,454.6	84.554	13,454.6	83.61	13,454.6	82.5972	13,454.6	81.0814	13,454.6	79.3757	13,454.6	78.6041	13,454.6	75.447	13,454.6	74.3329	13,454.6	70.3877	13,454.6	71.7668	13,454.6	66.6322	13,454.6	68.4104	13,454.6	62.9634	13,454.6	64.9034	13,454.6	60.8728	13,454.6	61.1904	13,454.6	57.2394	13,454.6	57.0903	13,454.6	51.6548	13,454.6	54.3385	13,454.6	50.2727	13,454.6	52.4453	13,454.6	50.6856	13,454.6	46.7215	13,454.6	49.7873	13,454.6	43.2681	13,454.6	47.9121	13,454.6	46.1927	13,454.6	41.8774	13,454.6	48.1746	13,454.6	52.7742	13,454.6	46.5535	13,454.6	44.7336	13,454.6	44.6183
13,929.2	85.1588	13,929.2	84.7911	13,929.2	84.3866	13,929.2	83.6726	13,929.2	82.2831	13,929.2	80.9205	13,929.2	78.6256	13,929.2	78.3742	13,929.2	74.1392	13,929.2	74.0442	13,929.2	68.6225	13,929.2	70.9447	13,929.2	65.8984	13,929.2	67.9435	13,929.2	64.5882	13,929.2	64.2985	13,929.2	63.3732	13,929.2	59.8543	13,929.2	59.2193	13,929.2	56.8753	13,929.2	55.6965	13,929.2	54.2002	13,929.2	53.3986	13,929.2	50.7273	13,929.2	52.718	13,929.2	48.278	13,929.2	50.4634	13,929.2	41.3139	13,929.2	48.7908	13,929.2	44.4112	13,929.2	45.6223	13,929.2	48.0005	13,929.2	53.1281	13,929.2	46.534	13,929.2	42.8269	13,929.2	46.3223
14,419.9	84.6732	14,419.9	84.6935	14,419.9	83.9329	14,419.9	83.5462	14,419.9	81.485	14,419.9	80.9448	14,419.9	77.5563	14,419.9	78.2053	14,419.9	72.6182	14,419.9	73.5348	14,419.9	66.9351	14,419.9	69.7581	14,419.9	66.9998	14,419.9	66.802	14,419.9	66.4466	14,419.9	63.4234	14,419.9	63.7355	14,419.9	58.8328	14,419.9	60.1838	14,419.9	55.481	14,419.9	56.8295	14,419.9	50.1936	14,419.9	53.2118	14,419.9	49.9926	14,419.9	53.0246	14,419.9	48.0099	14,419.9	49.2493	14,419.9	27.1985	14,419.9	49.2315	14,419.9	47.1574	14,419.9	46.1195	14,419.9	49.3049	14,419.9	52.5387	14,419.9	44.9023	14,419.9	40.0403	14,419.9	45.0721
14,928.2	84.2208	14,928.2	84.5279	14,928.2	83.53	14,928.2	83.384	14,928.2	80.6359	14,928.2	80.6751	14,928.2	76.078	14,928.2	77.2453	14,928.2	71.7147	14,928.2	71.8401	14,928.2	67.1296	14,928.2	66.8121	14,928.2	68.3449	14,928.2	63.2746	14,928.2	66.9608	14,928.2	60.4378	14,928.2	64.5828	14,928.2	56.1719	14,928.2	59.7739	14,928.2	53.6225	14,928.2	56.4757	14,928.2	46.6595	14,928.2	52.5911	14,928.2	48.0019	14,928.2	51.661	14,928.2	48.2337	14,928.2	44.8517	14,928.2	42.7749	14,928.2	48.5009	14,928.2	43.6308	14,928.2	45.2548	14,928.2	48.3803	14,928.2	51.6589	14,928.2	37.2382	14,928.2	41.5945	14,928.2	46.9288
15,455.6	83.7957	15,455.6	84.2593	15,455.6	83.0526	15,455.6	83.0102	15,455.6	80.1018	15,455.6	79.9025	15,455.6	75.6682	15,455.6	76.0054	15,455.6	71.8757	15,455.6	69.6576	15,455.6	68.5727	15,455.6	65.9443	15,455.6	68.9511	15,455.6	63.4602	15,455.6	67.5243	15,455.6	60.9559	15,455.6	63.5993	15,455.6	58.7985	15,455.6	59.8672	15,455.6	53.9685	15,455.6	55.5785	15,455.6	51.4341	15,455.6	52.671	15,455.6	49.3791	15,455.6	49.5877	15,455.6	48.1889	15,455.6	40.4712	15,455.6	42.5197	15,455.6	46.6891	15,455.6	38.7122	15,455.6	45.3669	15,455.6	47.324	15,455.6	49.5742	15,455.6	43.1134	15,455.6	25.0719	15,455.6	45.2053
16,000.5	84.2604	16,000.5	84.5033	16,000.5	83.5024	16,000.5	83.0764	16,000.5	80.4177	16,000.5	79.4101	16,000.5	76.251	16,000.5	75.3404	16,000.5	72.4634	16,000.5	68.1065	16,000.5	69.3841	16,000.5	65.1499	16,000.5	68.09	16,000.5	63.4665	16,000.5	65.8361	16,000.5	62.0016	16,000.5	61.8673	16,000.5	58.7097	16,000.5	57.4594	16,000.5	53.4935	16,000.5	52.5468	16,000.5	50.0706	16,000.5	48.0316	16,000.5	47.8318	16,000.5	47.3373	16,000.5	46.2575	16,000.5	40.0759	16,000.5	40.6181	16,000.5	43.3658	16,000.5	40.7089	16,000.5	45.1248	16,000.5	44.455	16,000.5	48.0843	16,000.5	45.8218	16,000.5	30.3024	16,000.5	42.4823
16,564.5	84.5935	16,564.5	84.4259	16,564.5	83.5779	16,564.5	82.5707	16,564.5	80.6001	16,564.5	78.3678	16,564.5	76.4688	16,564.5	73.7917	16,564.5	72.0565	16,564.5	66.6934	16,564.5	68.4606	16,564.5	63.7153	16,564.5	65.9352	16,564.5	63.832	16,564.5	63.05	16,564.5	60.6555	16,564.5	59.653	16,564.5	58.3677	16,564.5	54.6781	16,564.5	52.0527	16,564.5	49.0466	16,564.5	49.5574	16,564.5	47.9838	16,564.5	47.8116	16,564.5	45.0164	16,564.5	44.6656	16,564.5	38.1039	16,564.5	35.3855	16,564.5	40.2798	16,564.5	40.568	16,564.5	47.8851	16,564.5	38.5873	16,564.5	47.6339	16,564.5	43.3769	16,564.5	30.5726	16,564.5	31.0901
17,148.9	84.5401	17,148.9	84.0072	17,148.9	83.173	17,148.9	81.9018	17,148.9	80.1914	17,148.9	77.2584	17,148.9	76.1072	17,148.9	71.6979	17,148.9	71.3035	17,148.9	64.7725	17,148.9	66.7153	17,148.9	63.4935	17,148.9	63.5442	17,148.9	63.0883	17,148.9	61.2806	17,148.9	60.7712	17,148.9	55.3305	17,148.9	57.719	17,148.9	52.6112	17,148.9	52.3641	17,148.9	49.4131	17,148.9	48.3564	17,148.9	44.7063	17,148.9	45.2915	17,148.9	40.5799	17,148.9	44.9987	17,148.9	38.8668	17,148.9	33.8346	17,148.9	37.8775	17,148.9	40.8783	17,148.9	46.7812	17,148.9	24.8317	17,148.9	44.8445	17,148.9	43.048	17,148.9	28.7006	17,148.9	37.671
17,752.4	84.3026	17,752.4	83.3186	17,752.4	82.6775	17,752.4	81.0273	17,752.4	79.8689	17,752.4	76.3531	17,752.4	75.3731	17,752.4	70.5258	17,752.4	70.6198	17,752.4	64.0379	17,752.4	64.7321	17,752.4	64.3053	17,752.4	61.9343	17,752.4	64.6266	17,752.4	59.8764	17,752.4	61.6359	17,752.4	56.9792	17,752.4	59.1002	17,752.4	53.9802	17,752.4	53.0527	17,752.4	48.5749	17,752.4	49.1113	17,752.4	45.856	17,752.4	45.8749	17,752.4	44.227	17,752.4	43.8135	17,752.4	38.5884	17,752.4	29.939	17,752.4	29.1122	17,752.4	37.8784	17,752.4	43.9187	17,752.4	18.4079	17,752.4	40.586	17,752.4	41.5131	17,752.4	36.172	17,752.4	42.2025
18,379.4	83.923	18,379.4	82.7369	18,379.4	82.1023	18,379.4	80.3219	18,379.4	79.1414	18,379.4	74.9357	18,379.4	73.9174	18,379.4	69.209	18,379.4	69.4033	18,379.4	64.7655	18,379.4	63.6062	18,379.4	64.9902	18,379.4	63.1168	18,379.4	65.2535	18,379.4	62.8936	18,379.4	61.9817	18,379.4	57.4352	18,379.4	58.8706	18,379.4	54.8978	18,379.4	52.3185	18,379.4	49.7094	18,379.4	50.3531	18,379.4	47.2166	18,379.4	46.2861	18,379.4	44.0558	18,379.4	41.7697	18,379.4	42.5128	18,379.4	37.1925	18,379.4	29.0098	18,379.4	33.9806	18,379.4	44.9755	18,379.4	35.2666	18,379.4	39.0469	18,379.4	38.8221	18,379.4	29.0533	18,379.4	42.1449
19,026.9	83.2838	19,026.9	82.0335	19,026.9	81.4058	19,026.9	79.2834	19,026.9	78.215	19,026.9	73.9151	19,026.9	72.4827	19,026.9	68.2476	19,026.9	67.625	19,026.9	65.1838	19,026.9	63.565	19,026.9	64.929	19,026.9	63.3347	19,026.9	64.0704	19,026.9	61.7793	19,026.9	60.367	19,026.9	56.7981	19,026.9	57.017	19,026.9	53.702	19,026.9	50.1148	19,026.9	49.4861	19,026.9	47.6752	19,026.9	45.3018	19,026.9	42.632	19,026.9	41.2155	19,026.9	40.8128	19,026.9	36.3615	19,026.9	35.0655	19,026.9	30.7258	19,026.9	33.9215	19,026.9	43.6503	19,026.9	35.7552	19,026.9	37.2934	19,026.9	31.4827	19,026.9	36.4346	19,026.9	42.0123
19,697.8	82.1954	19,697.8	81.046	19,697.8	80.2711	19,697.8	78.1079	19,697.8	76.8447	19,697.8	72.5131	19,697.8	70.7806	19,697.8	66.1031	19,697.8	65.4658	19,697.8	63.5962	19,697.8	62.4212	19,697.8	62.779	19,697.8	60.7135	19,697.8	60.9046	19,697.8	59.1355	19,697.8	57.0586	19,697.8	54.8087	19,697.8	53.2868	19,697.8	50.6986	19,697.8	46.0213	19,697.8	45.7304	19,697.8	45.5907	19,697.8	42.5856	19,697.8	38.4086	19,697.8	38.5886	19,697.8	38.033	19,697.8	37.0673	19,697.8	25.525	19,697.8	30.5594	19,697.8	32.1787	19,697.8	40.8254	19,697.8	30.5407	19,697.8	29.8686	19,697.8	6.21927	19,697.8	39.4457	19,697.8	40.9212
19,999.5	81.6006	19,999.5	80.4114	19,999.5	79.471	19,999.5	76.964	19,999.5	75.995	19,999.5	72.2252	19,999.5	69.6563	19,999.5	65.6155	19,999.5	63.8551	19,999.5	62.3537	19,999.5	61.2672	19,999.5	59.7053	19,999.5	58.8564	19,999.5	58.4055	19,999.5	57.2546	19,999.5	52.1721	19,999.5	53.4318	19,999.5	46.6136	19,999.5	50.0935	19,999.5	44.3012	19,999.5	44.8194	19,999.5	47.966	19,999.5	46.2919	19,999.5	43.8494	19,999.5	40.0039	19,999.5	45.6657	19,999.5	43.7981	19,999.5	32.7168	19,999.5	27.1409	19,999.5	50.5066	19,999.5	39.0017	19,999.5	42.6551	19,999.5	50.5807	19,999.5	44.1487	19,999.5	44.7511	19,999.5	36.0616
