"SPL Vertical"
"On-Axis"		"10°"		"-10°"		"20°"		"-20°"		"30°"		"-30°"		"40°"		"-40°"		"50°"		"-50°"		"60°"		"-60°"		"70°"		"-70°"		"80°"		"-80°"		"90°"		"-90°"		"100°"		"-100°"		"110°"		"-110°"		"120°"		"-120°"		"130°"		"-130°"		"140°"		"-140°"		"150°"		"-150°"		"160°"		"-160°"		"170°"		"-170°"		"180°"
"Frequency / Hz"	"Sound Pressure Level / dB (re 20 µPa/V)  [2.83  V @ 1. m]"	"Frequency / Hz"	"Sound Pressure Level / dB (re 20 µPa/V)  [2.83  V @ 1. m]"	"Frequency / Hz"	"Sound Pressure Level / dB (re 20 µPa/V)  [2.83  V @ 1. m]"	"Frequency / Hz"	"Sound Pressure Level / dB (re 20 µPa/V)  [2.83  V @ 1. m]"	"Frequency / Hz"	"Sound Pressure Level / dB (re 20 µPa/V)  [2.83  V @ 1. m]"	"Frequency / Hz"	"Sound Pressure Level / dB (re 20 µPa/V)  [2.83  V @ 1. m]"	"Frequency / Hz"	"Sound Pressure Level / dB (re 20 µPa/V)  [2.83  V @ 1. m]"	"Frequency / Hz"	"Sound Pressure Level / dB (re 20 µPa/V)  [2.83  V @ 1. m]"	"Frequency / Hz"	"Sound Pressure Level / dB (re 20 µPa/V)  [2.83  V @ 1. m]"	"Frequency / Hz"	"Sound Pressure Level / dB (re 20 µPa/V)  [2.83  V @ 1. m]"	"Frequency / Hz"	"Sound Pressure Level / dB (re 20 µPa/V)  [2.83  V @ 1. m]"	"Frequency / Hz"	"Sound Pressure Level / dB (re 20 µPa/V)  [2.83  V @ 1. m]"	"Frequency / Hz"	"Sound Pressure Level / dB (re 20 µPa/V)  [2.83  V @ 1. m]"	"Frequency / Hz"	"Sound Pressure Level / dB (re 20 µPa/V)  [2.83  V @ 1. m]"	"Frequency / Hz"	"Sound Pressure Level / dB (re 20 µPa/V)  [2.83  V @ 1. m]"	"Frequency / Hz"	"Sound Pressure Level / dB (re 20 µPa/V)  [2.83  V @ 1. m]"	"Frequency / Hz"	"Sound Pressure Level / dB (re 20 µPa/V)  [2.83  V @ 1. m]"	"Frequency / Hz"	"Sound Pressure Level / dB (re 20 µPa/V)  [2.83  V @ 1. m]"	"Frequency / Hz"	"Sound Pressure Level / dB (re 20 µPa/V)  [2.83  V @ 1. m]"	"Frequency / Hz"	"Sound Pressure Level / dB (re 20 µPa/V)  [2.83  V @ 1. m]"	"Frequency / Hz"	"Sound Pressure Level / dB (re 20 µPa/V)  [2.83  V @ 1. m]"	"Frequency / Hz"	"Sound Pressure Level / dB (re 20 µPa/V)  [2.83  V @ 1. m]"	"Frequency / Hz"	"Sound Pressure Level / dB (re 20 µPa/V)  [2.83  V @ 1. m]"	"Frequency / Hz"	"Sound Pressure Level / dB (re 20 µPa/V)  [2.83  V @ 1. m]"	"Frequency / Hz"	"Sound Pressure Level / dB (re 20 µPa/V)  [2.83  V @ 1. m]"	"Frequency / Hz"	"Sound Pressure Level / dB (re 20 µPa/V)  [2.83  V @ 1. m]"	"Frequency / Hz"	"Sound Pressure Level / dB (re 20 µPa/V)  [2.83  V @ 1. m]"	"Frequency / Hz"	"Sound Pressure Level / dB (re 20 µPa/V)  [2.83  V @ 1. m]"	"Frequency / Hz"	"Sound Pressure Level / dB (re 20 µPa/V)  [2.83  V @ 1. m]"	"Frequency / Hz"	"Sound Pressure Level / dB (re 20 µPa/V)  [2.83  V @ 1. m]"	"Frequency / Hz"	"Sound Pressure Level / dB (re 20 µPa/V)  [2.83  V @ 1. m]"	"Frequency / Hz"	"Sound Pressure Level / dB (re 20 µPa/V)  [2.83  V @ 1. m]"	"Frequency / Hz"	"Sound Pressure Level / dB (re 20 µPa/V)  [2.83  V @ 1. m]"	"Frequency / Hz"	"Sound Pressure Level / dB (re 20 µPa/V)  [2.83  V @ 1. m]"	"Frequency / Hz"	"Sound Pressure Level / dB (re 20 µPa/V)  [2.83  V @ 1. m]"	"Frequency / Hz"	"Sound Pressure Level / dB (re 20 µPa/V)  [2.83  V @ 1. m]"
20.5078	52.363	20.5078	51.5093	20.5078	52.9702	20.5078	50.3789	20.5078	53.3476	20.5078	48.932	20.5078	53.4988	20.5078	47.149	20.5078	53.4155	20.5078	45.1753	20.5078	53.0771	20.5078	43.7697	20.5078	52.4502	20.5078	44.2402	20.5078	51.4911	20.5078	46.2847	20.5078	50.1621	20.5078	48.5935	20.5078	48.5141	20.5078	50.6314	20.5078	46.9859	20.5078	52.3236	20.5078	46.7417	20.5078	53.6986	20.5078	48.2761	20.5078	54.7909	20.5078	50.4452	20.5078	55.6238	20.5078	52.413	20.5078	56.2078	20.5078	53.9781	20.5078	56.5437	20.5078	55.1438	20.5078	56.6237	20.5078	55.9495	20.5078	56.4329
21.9727	53.4964	21.9727	52.794	21.9727	54.0039	21.9727	51.911	21.9727	54.3096	21.9727	50.8912	21.9727	54.4044	21.9727	49.8575	21.9727	54.2727	21.9727	49.0827	21.9727	53.8914	21.9727	48.9581	21.9727	53.2325	21.9727	49.6726	21.9727	52.275	21.9727	50.9804	21.9727	51.0541	21.9727	52.4952	21.9727	49.8109	21.9727	53.9697	21.9727	49.2261	21.9727	55.2969	21.9727	50.0028	21.9727	56.4391	21.9727	51.7683	21.9727	57.384	21.9727	53.6977	21.9727	58.1259	21.9727	55.3887	21.9727	58.6586	21.9727	56.7436	21.9727	58.9733	21.9727	57.7639	21.9727	59.0579	21.9727	58.4734	21.9727	58.8975
23.4375	54.5887	23.4375	53.8697	23.4375	55.1006	23.4375	52.9537	23.4375	55.4019	23.4375	51.8836	23.4375	55.486	23.4375	50.7956	23.4375	55.3396	23.4375	50.0121	23.4375	54.9424	23.4375	49.9914	23.4375	54.2717	23.4375	50.8975	23.4375	53.3208	23.4375	52.38	23.4375	52.1615	23.4375	54.007	23.4375	51.107	23.4375	55.5434	23.4375	50.8548	23.4375	56.9021	23.4375	51.8792	23.4375	58.0589	23.4375	53.6735	23.4375	59.0095	23.4375	55.5375	23.4375	59.7528	23.4375	57.158	23.4375	60.2856	23.4375	58.4588	23.4375	60.601	23.4375	59.4418	23.4375	60.6891	23.4375	60.1271	23.4375	60.5365
24.9023	56.3867	24.9023	55.84	24.9023	56.7891	24.9023	55.1823	24.9023	57.0298	24.9023	54.481	24.9023	57.0964	24.9023	53.8643	24.9023	56.9787	24.9023	53.5288	24.9023	56.6691	24.9023	53.6696	24.9023	56.1722	24.9023	54.3346	24.9023	55.5266	24.9023	55.3796	24.9023	54.8524	24.9023	56.5935	24.9023	54.4084	24.9023	57.8143	24.9023	54.5369	24.9023	58.9493	24.9023	55.3694	24.9023	59.9514	24.9023	56.663	24.9023	60.7969	24.9023	58.0683	24.9023	61.4712	24.9023	59.361	24.9023	61.9628	24.9023	60.443	24.9023	62.2607	24.9023	61.2824	24.9023	62.3534	24.9023	61.8755	24.9023	62.2289
26.3672	57.9316	26.3672	57.5093	26.3672	58.2607	26.3672	57.032	26.3672	58.4725	26.3672	56.561	26.3672	58.5501	26.3672	56.1899	26.3672	58.4817	26.3672	56.0364	26.3672	58.2618	26.3672	56.2021	26.3672	57.8997	26.3672	56.7146	26.3672	57.4362	26.3672	57.5066	26.3672	56.9727	26.3672	58.46	26.3672	56.6946	26.3672	59.4616	26.3672	56.8244	26.3672	60.4286	26.3672	57.4622	26.3672	61.3079	26.3672	58.482	26.3672	62.0656	26.3672	59.6473	26.3672	62.6788	26.3672	60.7666	26.3672	63.1303	26.3672	61.7325	26.3672	63.4051	26.3672	62.4971	26.3672	63.4901	26.3672	63.0442	26.3672	63.3731
27.832	60.0664	27.832	59.6623	27.832	60.3662	27.832	59.1817	27.832	60.5443	27.832	58.6717	27.832	60.5891	27.832	58.209	27.832	60.493	27.832	57.9021	27.832	60.2541	27.832	57.869	27.832	59.8837	27.832	58.1809	27.832	59.4209	27.832	58.8151	27.832	58.9557	27.832	59.6697	27.832	58.6482	27.832	60.6221	27.832	58.6939	27.832	61.5723	27.832	59.198	27.832	62.4528	27.832	60.0757	27.832	63.2208	27.832	61.1245	27.832	63.8485	27.832	62.1599	27.832	64.3162	27.832	63.0678	27.832	64.6081	27.832	63.7917	27.832	64.7112	27.832	64.3089	27.832	64.6142
29.2969	61.0437	29.2969	60.683	29.2969	61.3209	29.2969	60.2724	29.2969	61.4936	29.2969	59.8643	29.2969	61.5491	29.2969	59.5351	29.2969	61.4811	29.2969	59.3786	29.2969	61.2922	29.2969	59.4797	29.2969	61.0004	29.2969	59.8727	29.2969	60.6518	29.2969	60.521	29.2969	60.3374	29.2969	61.3378	29.2969	60.1958	29.2969	62.2267	29.2969	60.3709	29.2969	63.1085	29.2969	60.9186	29.2969	63.927	29.2969	61.7568	29.2969	64.644	29.2969	62.7254	29.2969	65.2328	29.2969	63.6774	29.2969	65.6734	29.2969	64.516	29.2969	65.9496	29.2969	65.1888	29.2969	66.0479	29.2969	65.6719	29.2969	65.9578
30.7617	62.792	30.7617	62.4856	30.7617	63.0313	30.7617	62.1397	30.7617	63.1852	30.7617	61.7959	30.7617	63.2425	30.7617	61.5121	30.7617	63.198	30.7617	61.3585	30.7617	63.0546	30.7617	61.4022	30.7617	62.829	30.7617	61.6808	30.7617	62.5602	30.7617	62.1834	30.7617	62.3195	30.7617	62.8547	30.7617	62.2107	30.7617	63.6197	30.7617	62.3414	30.7617	64.4066	30.7617	62.7648	30.7617	65.1576	30.7617	63.4385	30.7617	65.8299	30.7617	64.2497	30.7617	66.3919	30.7617	65.0755	30.7617	66.8196	30.7617	65.8221	30.7617	67.0941	30.7617	66.4309	30.7617	67.2003	30.7617	66.8706	30.7617	67.1277
32.2266	63.7352	32.2266	63.4634	32.2266	63.9477	32.2266	63.1596	32.2266	64.0827	32.2266	62.8631	32.2266	64.129	32.2266	62.6264	32.2266	64.0818	32.2266	62.5108	32.2266	63.9444	32.2266	62.5727	32.2266	63.7329	32.2266	62.843	32.2266	63.4844	32.2266	63.3123	32.2266	63.2647	32.2266	63.9345	32.2266	63.1684	32.2266	64.6448	32.2266	63.2933	32.2266	65.3786	32.2266	63.6895	32.2266	66.0821	32.2266	64.3227	32.2266	66.7133	32.2266	65.0921	32.2266	67.2406	32.2266	65.8833	32.2266	67.6396	32.2266	66.6057	32.2266	67.8911	32.2266	67.2007	32.2266	67.9802	32.2266	67.6359	32.2266	67.8968
33.6914	65.2126	33.6914	64.9769	33.6914	65.399	33.6914	64.7168	33.6914	65.5193	33.6914	64.4664	33.6914	65.5633	33.6914	64.27	33.6914	65.5274	33.6914	64.1775	33.6914	65.416	33.6914	64.2341	33.6914	65.2455	33.6914	64.466	33.6914	65.0505	33.6914	64.8692	33.6914	64.8879	33.6914	65.4102	33.6914	64.8346	33.6914	66.0377	33.6914	64.9664	33.6914	66.6967	33.6914	65.3217	33.6914	67.3381	33.6914	65.8749	33.6914	67.9212	33.6914	66.5483	33.6914	68.414	33.6914	67.2478	33.6914	68.7912	33.6914	67.8933	33.6914	69.033	33.6914	68.4291	33.6914	69.1243	33.6914	68.8218	33.6914	69.0551
35.1562	66.2271	35.1562	65.98	35.1562	66.425	35.1562	65.707	35.1562	66.558	35.1562	65.4406	35.1562	66.6164	35.1562	65.2227	35.1562	66.5968	35.1562	65.1014	35.1562	66.5034	35.1562	65.1222	35.1562	66.3515	35.1562	65.3139	35.1562	66.1723	35.1562	65.677	35.1562	66.0171	35.1562	66.1824	35.1562	65.9547	35.1562	66.7814	35.1562	66.0547	35.1562	67.4196	35.1562	66.3564	35.1562	68.047	35.1562	66.844	35.1562	68.6218	35.1562	67.452	35.1562	69.1111	35.1562	68.0948	35.1562	69.4889	35.1562	68.6951	35.1562	69.735	35.1562	69.1964	35.1562	69.8347	35.1562	69.5636	35.1562	69.7785
36.6211	67.1346	36.6211	66.9368	36.6211	67.2989	36.6211	66.728	36.6211	67.4136	36.6211	66.5383	36.6211	67.4691	36.6211	66.4035	36.6211	67.4624	36.6211	66.3617	36.6211	67.3987	36.6211	66.4456	36.6211	67.2941	36.6211	66.673	36.6211	67.1793	36.6211	67.04	36.6211	67.1012	36.6211	67.5219	36.6211	67.1178	36.6211	68.0797	36.6211	67.2824	36.6211	68.6695	36.6211	67.6193	36.6211	69.2492	36.6211	68.1085	36.6211	69.7823	36.6211	68.6922	36.6211	70.2383	36.6211	69.2978	36.6211	70.5922	36.6211	69.8593	36.6211	70.8242	36.6211	70.3271	36.6211	70.9195	36.6211	70.6694	36.6211	70.8688
38.0859	68.6087	38.0859	68.4452	38.0859	68.7476	38.0859	68.2755	38.0859	68.8484	38.0859	68.123	38.0859	68.9031	38.0859	68.0151	38.0859	68.909	38.0859	67.9804	38.0859	68.8703	38.0859	68.0439	38.0859	68.8001	38.0859	68.2212	38.0859	68.7226	38.0859	68.5132	38.0859	68.6737	38.0859	68.9053	38.0859	68.6975	38.0859	69.3702	38.0859	68.8349	38.0859	69.8731	38.0859	69.1074	38.0859	70.3782	38.0859	69.505	38.0859	70.8512	38.0859	69.9873	38.0859	71.2623	38.0859	70.4974	38.0859	71.5861	38.0859	70.9787	38.0859	71.802	38.0859	71.3848	38.0859	71.895	38.0859	71.6835	38.0859	71.856
39.5508	69.6414	39.5508	69.4864	39.5508	69.7728	39.5508	69.3236	39.5508	69.869	39.5508	69.1735	39.5508	69.923	39.5508	69.0604	39.5508	69.9326	39.5508	69.0101	39.5508	69.9017	39.5508	69.0466	39.5508	69.8422	39.5508	69.1867	39.5508	69.7755	39.5508	69.4351	39.5508	69.733	39.5508	69.7818	39.5508	69.7533	39.5508	70.2039	39.5508	69.8725	39.5508	70.6703	39.5508	70.1111	39.5508	71.1462	39.5508	70.463	39.5508	71.5978	39.5508	70.8946	39.5508	71.9948	39.5508	71.3561	39.5508	72.311	39.5508	71.7952	39.5508	72.5256	39.5508	72.1674	39.5508	72.6233	39.5508	72.4406	39.5508	72.5953
41.0156	70.9081	41.0156	70.7618	41.0156	71.0334	41.0156	70.6084	41.0156	71.1277	41.0156	70.4654	41.0156	71.1847	41.0156	70.3534	41.0156	71.2024	41.0156	70.2946	41.0156	71.1841	41.0156	70.3099	41.0156	71.1395	41.0156	70.415	41.0156	71.0864	41.0156	70.6163	41.0156	71.0507	41.0156	70.9081	41.0156	71.0639	41.0156	71.2729	41.0156	71.1568	41.0156	71.6845	41.0156	71.3485	41.0156	72.1123	41.0156	71.6377	41.0156	72.5245	41.0156	72	41.0156	72.8917	41.0156	72.3945	41.0156	73.1881	41.0156	72.7754	41.0156	73.3929	41.0156	73.1013	41.0156	73.4909	41.0156	73.3407	41.0156	73.4736
42.4805	71.8266	42.4805	71.6897	42.4805	71.9452	42.4805	71.5474	42.4805	72.0361	42.4805	71.4158	42.4805	72.0935	42.4805	71.3135	42.4805	72.1155	42.4805	71.2606	42.4805	72.1053	42.4805	71.2762	42.4805	72.0718	42.4805	71.3744	42.4805	72.0314	42.4805	71.5617	42.4805	72.0073	42.4805	71.8337	42.4805	72.0278	42.4805	72.1752	42.4805	72.1199	42.4805	72.5627	42.4805	72.3007	42.4805	72.9676	42.4805	72.5696	42.4805	73.36	42.4805	72.9054	42.4805	73.7114	42.4805	73.2716	42.4805	73.9965	42.4805	73.6265	42.4805	74.1948	42.4805	73.9309	42.4805	74.2913	42.4805	74.1547	42.4805	74.2779
43.9453	72.7375	43.9453	72.609	43.9453	72.8491	43.9453	72.4747	43.9453	72.9359	43.9453	72.3486	43.9453	72.993	43.9453	72.2471	43.9453	73.0192	43.9453	72.1883	43.9453	73.0175	43.9453	72.1899	43.9453	72.9959	43.9453	72.2661	43.9453	72.9684	43.9453	72.4244	43.9453	72.9551	43.9453	72.6631	43.9453	72.9798	43.9453	72.9704	43.9453	73.0657	43.9453	73.3258	43.9453	73.2279	43.9453	73.703	43.9453	73.4668	43.9453	74.0735	43.9453	73.765	43.9453	74.4096	43.9453	74.0914	43.9453	74.6862	43.9453	74.4086	43.9453	74.8827	43.9453	74.6804	43.9453	74.9841	43.9453	74.8783	43.9453	74.9826
45.4102	73.2773	45.4102	73.1572	45.4102	73.3896	45.4102	73.0398	45.4102	73.486	45.4102	72.9382	45.4102	73.5613	45.4102	72.8671	45.4102	73.6137	45.4102	72.8419	45.4102	73.6449	45.4102	72.8767	45.4102	73.6611	45.4102	72.9819	45.4102	73.6737	45.4102	73.1614	45.4102	73.6987	45.4102	73.4113	45.4102	73.7555	45.4102	73.7194	45.4102	73.8624	45.4102	74.0667	45.4102	74.0313	45.4102	74.4296	45.4102	74.2622	45.4102	74.783	45.4102	74.5409	45.4102	75.102	45.4102	74.8412	45.4102	75.3641	45.4102	75.1309	45.4102	75.5509	45.4102	75.3786	45.4102	75.6489	45.4102	75.5579	45.4102	75.6511
46.875	74.6775	46.875	74.5655	46.875	74.7776	46.875	74.4504	46.875	74.8594	46.875	74.3427	46.875	74.9187	46.875	74.2551	46.875	74.9539	46.875	74.2008	46.875	74.9667	46.875	74.1934	46.875	74.9625	46.875	74.2438	46.875	74.9511	46.875	74.3591	46.875	74.9469	46.875	74.5397	46.875	74.9674	46.875	74.7786	46.875	75.0301	46.875	75.0618	46.875	75.1479	46.875	75.3695	46.875	75.3237	46.875	75.6785	46.875	75.5473	46.875	75.9648	46.875	75.7969	46.875	76.2055	46.875	76.0434	46.875	76.3812	46.875	76.2566	46.875	76.4778	46.875	76.4107	46.875	76.4875
48.3398	75.2849	48.3398	75.1751	48.3398	75.3854	48.3398	75.0642	48.3398	75.4704	48.3398	74.9623	48.3398	75.5361	48.3398	74.8809	48.3398	75.5809	48.3398	74.8327	48.3398	75.6064	48.3398	74.8299	48.3398	75.6175	48.3398	74.8828	48.3398	75.623	48.3398	74.9976	48.3398	75.6356	48.3398	75.1744	48.3398	75.6703	48.3398	75.4069	48.3398	75.7422	48.3398	75.6818	48.3398	75.8619	48.3398	75.9806	48.3398	76.0314	48.3398	76.2814	48.3398	76.2417	48.3398	76.5613	48.3398	76.4731	48.3398	76.7986	48.3398	76.6994	48.3398	76.9746	48.3398	76.8932	48.3398	77.0756	48.3398	77.0304	48.3398	77.0941
51.2695	76.6884	51.2695	76.5946	51.2695	76.7782	51.2695	76.5033	51.2695	76.8594	51.2695	76.422	51.2695	76.9285	51.2695	76.3592	51.2695	76.9841	51.2695	76.3241	51.2695	77.0269	51.2695	76.3256	51.2695	77.0598	51.2695	76.371	51.2695	77.0884	51.2695	76.4652	51.2695	77.1207	51.2695	76.6091	51.2695	77.1667	51.2695	76.7987	51.2695	77.2364	51.2695	77.0247	51.2695	77.3371	51.2695	77.2734	51.2695	77.4709	51.2695	77.5274	51.2695	77.6322	51.2695	77.7677	51.2695	77.8078	51.2695	77.9755	51.2695	77.9785	51.2695	78.1342	51.2695	78.1229	51.2695	78.2314	51.2695	78.2218	51.2695	78.2605
52.7344	77.454	52.7344	77.3684	52.7344	77.5369	52.7344	77.2851	52.7344	77.613	52.7344	77.2103	52.7344	77.6795	52.7344	77.151	52.7344	77.7349	52.7344	77.1148	52.7344	77.7796	52.7344	77.1094	52.7344	77.8156	52.7344	77.1417	52.7344	77.847	52.7344	77.2166	52.7344	77.8801	52.7344	77.336	52.7344	77.9229	52.7344	77.4977	52.7344	77.9836	52.7344	77.6947	52.7344	78.0689	52.7344	77.9154	52.7344	78.1812	52.7344	78.1446	52.7344	78.3166	52.7344	78.3647	52.7344	78.4645	52.7344	78.5578	52.7344	78.6085	52.7344	78.7082	52.7344	78.7299	52.7344	78.8037	52.7344	78.8108	52.7344	78.8379
54.1992	78.104	54.1992	78.019	54.1992	78.1867	54.1992	77.9362	54.1992	78.2634	54.1992	77.861	54.1992	78.3316	54.1992	77.7996	54.1992	78.3897	54.1992	77.759	54.1992	78.4376	54.1992	77.7462	54.1992	78.4766	54.1992	77.7679	54.1992	78.5101	54.1992	77.8291	54.1992	78.543	54.1992	77.9323	54.1992	78.5822	54.1992	78.0762	54.1992	78.6351	54.1992	78.2549	54.1992	78.7079	54.1992	78.4584	54.1992	78.8033	54.1992	78.6725	54.1992	78.9186	54.1992	78.8809	54.1992	79.045	54.1992	79.0665	54.1992	79.168	54.1992	79.2138	54.1992	79.2705	54.1992	79.3111	54.1992	79.336	54.1992	79.3518
55.6641	78.6285	55.6641	78.5452	55.6641	78.7112	55.6641	78.4655	55.6641	78.7902	55.6641	78.394	55.6641	78.8627	55.6641	78.3362	55.6641	78.9268	55.6641	78.2981	55.6641	78.982	55.6641	78.286	55.6641	79.0287	55.6641	78.3059	55.6641	79.0694	55.6641	78.3624	55.6641	79.1082	55.6641	78.4579	55.6641	79.1507	55.6641	78.5917	55.6641	79.2032	55.6641	78.7586	55.6641	79.2711	55.6641	78.9498	55.6641	79.3571	55.6641	79.1524	55.6641	79.4589	55.6641	79.3511	55.6641	79.5691	55.6641	79.5299	55.6641	79.675	55.6641	79.6744	55.6641	79.7614	55.6641	79.7729	55.6641	79.8134	55.6641	79.8193
58.5938	79.6507	58.5938	79.5759	58.5938	79.7277	58.5938	79.5063	58.5938	79.8042	58.5938	79.4454	58.5938	79.8782	58.5938	79.397	58.5938	79.9479	58.5938	79.3656	58.5938	80.0119	58.5938	79.3554	58.5938	80.0699	58.5938	79.3708	58.5938	80.1221	58.5938	79.4151	58.5938	80.1702	58.5938	79.4903	58.5938	80.217	58.5938	79.5963	58.5938	80.266	58.5938	79.73	58.5938	80.3206	58.5938	79.885	58.5938	80.3829	58.5938	80.0518	58.5938	80.4522	58.5938	80.2187	58.5938	80.524	58.5938	80.3728	58.5938	80.5903	58.5938	80.5018	58.5938	80.6404	58.5938	80.596	58.5938	80.6632	58.5938	80.65
60.0586	80.0686	60.0586	79.9985	60.0586	80.142	60.0586	79.9341	60.0586	80.2167	60.0586	79.8779	60.0586	80.2907	60.0586	79.8331	60.0586	80.3622	60.0586	79.8031	60.0586	80.4298	60.0586	79.7915	60.0586	80.4924	60.0586	79.8021	60.0586	80.5496	60.0586	79.8385	60.0586	80.602	60.0586	79.9028	60.0586	80.6513	60.0586	79.9956	60.0586	80.6999	60.0586	80.115	60.0586	80.7506	60.0586	80.2559	60.0586	80.8052	60.0586	80.4101	60.0586	80.8633	60.0586	80.567	60.0586	80.9215	60.0586	80.7144	60.0586	80.973	60.0586	80.8409	60.0586	81.0088	60.0586	80.9367	60.0586	81.0192	60.0586	80.9965
62.9883	80.9598	62.9883	80.8903	62.9883	81.0337	62.9883	80.8271	62.9883	81.1104	62.9883	80.7717	62.9883	81.188	62.9883	80.7263	62.9883	81.2644	62.9883	80.693	62.9883	81.3378	62.9883	80.6744	62.9883	81.406	62.9883	80.6735	62.9883	81.4676	62.9883	80.6929	62.9883	81.5217	62.9883	80.7351	62.9883	81.5681	62.9883	80.8014	62.9883	81.6079	62.9883	80.8912	62.9883	81.6426	62.9883	81.0017	62.9883	81.6736	62.9883	81.1272	62.9883	81.7015	62.9883	81.2599	62.9883	81.7248	62.9883	81.3901	62.9883	81.7399	62.9883	81.5082	62.9883	81.7409	62.9883	81.6058	62.9883	81.7218	62.9883	81.6775
64.4531	81.3151	64.4531	81.2468	64.4531	81.3883	64.4531	81.1847	64.4531	81.4647	64.4531	81.1302	64.4531	81.5428	64.4531	81.0849	64.4531	81.6205	64.4531	81.0506	64.4531	81.6957	64.4531	81.0296	64.4531	81.7663	64.4531	81.0244	64.4531	81.8303	64.4531	81.0376	64.4531	81.8862	64.4531	81.0716	64.4531	81.9334	64.4531	81.128	64.4531	81.9721	64.4531	81.2068	64.4531	82.003	64.4531	81.3061	64.4531	82.0273	64.4531	81.4212	64.4531	82.0455	64.4531	81.5453	64.4531	82.0568	64.4531	81.6698	64.4531	82.0586	64.4531	81.7856	64.4531	82.0464	64.4531	81.8849	64.4531	82.0156	64.4531	81.9622
67.3828	81.8322	67.3828	81.7668	67.3828	81.9039	67.3828	81.7086	67.3828	81.9811	67.3828	81.658	67.3828	82.0624	67.3828	81.6159	67.3828	82.1457	67.3828	81.5832	67.3828	82.2286	67.3828	81.5614	67.3828	82.3081	67.3828	81.5524	67.3828	82.3812	67.3828	81.5583	67.3828	82.445	67.3828	81.5815	67.3828	82.4972	67.3828	81.6238	67.3828	82.5364	67.3828	81.686	67.3828	82.5623	67.3828	81.7674	67.3828	82.5753	67.3828	81.8652	67.3828	82.5764	67.3828	81.9743	67.3828	82.566	67.3828	82.0881	67.3828	82.5436	67.3828	82.1991	67.3828	82.5077	67.3828	82.3003	67.3828	82.456	67.3828	82.3869
68.8477	81.9755	68.8477	81.9121	68.8477	82.047	68.8477	81.8573	68.8477	82.1259	68.8477	81.8113	68.8477	82.2108	68.8477	81.7741	68.8477	82.2994	68.8477	81.7464	68.8477	82.389	68.8477	81.7289	68.8477	82.4761	68.8477	81.7228	68.8477	82.5569	68.8477	81.73	68.8477	82.6278	68.8477	81.7523	68.8477	82.6858	68.8477	81.7916	68.8477	82.7286	68.8477	81.8489	68.8477	82.7553	68.8477	81.9241	68.8477	82.7661	68.8477	82.0151	68.8477	82.7619	68.8477	82.1181	68.8477	82.7436	68.8477	82.2273	68.8477	82.7117	68.8477	82.3362	68.8477	82.6659	68.8477	82.4384	68.8477	82.6052	68.8477	82.5291
71.7773	82.4463	71.7773	82.3859	71.7773	82.5161	71.7773	82.335	71.7773	82.5948	71.7773	82.2929	71.7773	82.681	71.7773	82.259	71.7773	82.7723	71.7773	82.2328	71.7773	82.8653	71.7773	82.2139	71.7773	82.9558	71.7773	82.2029	71.7773	83.0392	71.7773	82.2009	71.7773	83.1109	71.7773	82.2093	71.7773	83.1666	71.7773	82.2301	71.7773	83.2033	71.7773	82.2653	71.7773	83.2191	71.7773	82.3161	71.7773	83.2139	71.7773	82.3825	71.7773	83.189	71.7773	82.463	71.7773	83.1466	71.7773	82.5544	71.7773	83.0893	71.7773	82.6523	71.7773	83.0191	71.7773	82.7517	71.7773	82.9381	71.7773	82.8482
74.707	83.0398	74.707	82.9847	74.707	83.1035	74.707	82.9377	74.707	83.1756	74.707	82.8976	74.707	83.255	74.707	82.8632	74.707	83.3393	74.707	82.8334	74.707	83.4254	74.707	82.8073	74.707	83.5089	74.707	82.7848	74.707	83.5849	74.707	82.7669	74.707	83.6484	74.707	82.755	74.707	83.6944	74.707	82.7516	74.707	83.7192	74.707	82.7596	74.707	83.7204	74.707	82.7817	74.707	83.6977	74.707	82.8199	74.707	83.6526	74.707	82.8749	74.707	83.5881	74.707	82.9456	74.707	83.5086	74.707	83.0294	74.707	83.4181	74.707	83.1227	74.707	83.3211	74.707	83.2213
77.6367	83.3159	77.6367	83.2622	77.6367	83.3779	77.6367	83.2158	77.6367	83.4483	77.6367	83.1751	77.6367	83.5264	77.6367	83.1384	77.6367	83.6101	77.6367	83.1042	77.6367	83.6962	77.6367	83.0713	77.6367	83.7801	77.6367	83.0393	77.6367	83.8566	77.6367	83.0091	77.6367	83.9197	77.6367	82.9824	77.6367	83.9639	77.6367	82.9621	77.6367	83.9844	77.6367	82.9517	77.6367	83.9781	77.6367	82.9552	77.6367	83.944	77.6367	82.9759	77.6367	83.8837	77.6367	83.0163	77.6367	83.8008	77.6367	83.0768	77.6367	83.7007	77.6367	83.1563	77.6367	83.5896	77.6367	83.2519	77.6367	83.4738	77.6367	83.3594
79.1016	83.3584	79.1016	83.3035	79.1016	83.4216	79.1016	83.2557	79.1016	83.4932	79.1016	83.2133	79.1016	83.5725	79.1016	83.1747	79.1016	83.6575	79.1016	83.1379	79.1016	83.7447	79.1016	83.102	79.1016	83.8297	79.1016	83.0663	79.1016	83.9067	79.1016	83.0315	79.1016	83.9697	79.1016	82.9995	79.1016	84.0128	79.1016	82.973	79.1016	84.0309	79.1016	82.9559	79.1016	84.0205	79.1016	82.9524	79.1016	83.9806	79.1016	82.9665	79.1016	83.9126	79.1016	83.001	79.1016	83.8206	79.1016	83.0574	79.1016	83.7105	79.1016	83.1353	79.1016	83.5895	79.1016	83.232	79.1016	83.4649	79.1016	83.3436
82.0312	83.563	82.0312	83.5066	82.0312	83.6289	82.0312	83.4584	82.0312	83.7044	82.0312	83.4169	82.0312	83.7882	82.0312	83.3796	82.0312	83.878	82.0312	83.3446	82.0312	83.9701	82.0312	83.31	82.0312	84.0593	82.0312	83.2747	82.0312	84.1397	82.0312	83.2387	82.0312	84.2048	82.0312	83.2035	82.0312	84.2483	82.0312	83.1715	82.0312	84.2645	82.0312	83.1466	82.0312	84.2496	82.0312	83.1335	82.0312	84.2023	82.0312	83.1371	82.0312	84.1242	82.0312	83.1615	82.0312	84.0197	82.0312	83.2098	82.0312	83.8958	82.0312	83.2827	82.0312	83.7611	82.0312	83.3789	82.0312	83.6245	82.0312	83.4947
84.9609	83.8007	84.9609	83.7516	84.9609	83.8592	84.9609	83.7101	84.9609	83.9281	84.9609	83.6736	84.9609	84.0073	84.9609	83.6396	84.9609	84.0951	84.9609	83.6055	84.9609	84.1884	84.9609	83.5693	84.9609	84.2824	84.9609	83.5299	84.9609	84.3709	84.9609	83.4874	84.9609	84.4464	84.9609	83.4433	84.9609	84.5012	84.9609	83.4007	84.9609	84.5281	84.9609	83.3642	84.9609	84.5217	84.9609	83.3395	84.9609	84.4789	84.9609	83.3329	84.9609	84.4003	84.9609	83.3501	84.9609	84.2898	84.9609	83.3956	84.9609	84.1546	84.9609	83.4712	84.9609	84.0047	84.9609	83.5758	84.9609	83.8511	84.9609	83.7049
87.8906	83.7404	87.8906	83.6937	87.8906	83.8	87.8906	83.6574	87.8906	83.8737	87.8906	83.6287	87.8906	83.9614	87.8906	83.6041	87.8906	84.0612	87.8906	83.5805	87.8906	84.1695	87.8906	83.5552	87.8906	84.2803	87.8906	83.5265	87.8906	84.3863	87.8906	83.4937	87.8906	84.4788	87.8906	83.4579	87.8906	84.549	87.8906	83.4218	87.8906	84.5887	87.8906	83.3899	87.8906	84.5918	87.8906	83.3681	87.8906	84.5548	87.8906	83.3632	87.8906	84.4781	87.8906	83.3819	87.8906	84.3658	87.8906	83.4293	87.8906	84.2259	87.8906	83.5082	87.8906	84.0691	87.8906	83.6178	87.8906	83.9076	87.8906	83.7536
90.8203	84.2387	90.8203	84.1905	90.8203	84.2928	90.8203	84.1459	90.8203	84.3541	90.8203	84.1015	90.8203	84.4222	90.8203	84.0538	90.8203	84.4952	90.8203	83.9993	90.8203	84.5692	90.8203	83.9351	90.8203	84.639	90.8203	83.8596	90.8203	84.698	90.8203	83.7727	90.8203	84.7388	90.8203	83.6764	90.8203	84.7535	90.8203	83.5751	90.8203	84.7355	90.8203	83.475	90.8203	84.6795	90.8203	83.3848	90.8203	84.5835	90.8203	83.3144	90.8203	84.4491	90.8203	83.2738	90.8203	84.2823	90.8203	83.272	90.8203	84.0935	90.8203	83.3152	90.8203	83.8963	90.8203	83.405	90.8203	83.7062	90.8203	83.5382
95.2148	84.0856	95.2148	84.0311	95.2148	84.1507	95.2148	83.9857	95.2148	84.227	95.2148	83.9473	95.2148	84.3144	95.2148	83.9134	95.2148	84.411	95.2148	83.8814	95.2148	84.5137	95.2148	83.8488	95.2148	84.6174	95.2148	83.8136	95.2148	84.715	95.2148	83.7744	95.2148	84.7985	95.2148	83.7315	95.2148	84.8587	95.2148	83.6863	95.2148	84.8871	95.2148	83.6427	95.2148	84.8766	95.2148	83.6062	95.2148	84.8233	95.2148	83.584	95.2148	84.7275	95.2148	83.5841	95.2148	84.594	95.2148	83.614	95.2148	84.4325	95.2148	83.6791	95.2148	84.2559	95.2148	83.781	95.2148	84.0792	95.2148	83.917
98.1445	84.2501	98.1445	84.2012	98.1445	84.308	98.1445	84.1591	98.1445	84.3762	98.1445	84.1208	98.1445	84.4546	98.1445	84.0829	98.1445	84.5415	98.1445	84.0419	98.1445	84.6333	98.1445	83.9949	98.1445	84.7246	98.1445	83.9397	98.1445	84.8081	98.1445	83.8753	98.1445	84.8751	98.1445	83.8027	98.1445	84.9166	98.1445	83.7249	98.1445	84.924	98.1445	83.6469	98.1445	84.8904	98.1445	83.5763	98.1445	84.8126	98.1445	83.5223	98.1445	84.6915	98.1445	83.4947	98.1445	84.5331	98.1445	83.5029	98.1445	84.3481	98.1445	83.5536	98.1445	84.1512	98.1445	83.6493	98.1445	83.9589	98.1445	83.7872
101.074	84.0285	101.074	83.9743	101.074	84.0968	101.074	83.9319	101.074	84.1801	101.074	83.8982	101.074	84.278	101.074	83.8694	101.074	84.3878	101.074	83.842	101.074	84.5054	101.074	83.8126	101.074	84.6244	101.074	83.7783	101.074	84.7365	101.074	83.7377	101.074	84.8326	101.074	83.6908	101.074	84.9026	101.074	83.6398	101.074	84.9372	101.074	83.5889	101.074	84.9289	101.074	83.5448	101.074	84.8734	101.074	83.5162	101.074	84.7707	101.074	83.5126	101.074	84.6258	101.074	83.5429	101.074	84.4489	101.074	83.6135	101.074	84.2542	101.074	83.7263	101.074	84.0583	101.074	83.8777
105.469	84.3549	105.469	84.3112	105.469	84.4078	105.469	84.2748	105.469	84.4702	105.469	84.2427	105.469	84.5413	105.469	84.211	105.469	84.619	105.469	84.1754	105.469	84.6995	105.469	84.1316	105.469	84.7781	105.469	84.076	105.469	84.8482	105.469	84.0065	105.469	84.9021	105.469	83.9231	105.469	84.9314	105.469	83.8282	105.469	84.9275	105.469	83.7273	105.469	84.8834	105.469	83.6289	105.469	84.7951	105.469	83.5441	105.469	84.6626	105.469	83.4855	105.469	84.4918	105.469	83.4656	105.469	84.2938	105.469	83.4942	105.469	84.0849	105.469	83.5761	105.469	83.8837	105.469	83.709
108.398	84.6093	108.398	84.5654	108.398	84.6575	108.398	84.5241	108.398	84.7109	108.398	84.4826	108.398	84.769	108.398	84.4376	108.398	84.8302	108.398	84.3852	108.398	84.8918	108.398	84.322	108.398	84.9495	108.398	84.2451	108.398	84.9977	108.398	84.1532	108.398	85.0293	108.398	84.0466	108.398	85.0364	108.398	83.9285	108.398	85.0107	108.398	83.8046	108.398	84.9457	108.398	83.6839	108.398	84.8374	108.398	83.578	108.398	84.6864	108.398	83.5002	108.398	84.4988	108.398	83.4637	108.398	84.2867	108.398	83.4794	108.398	84.0668	108.398	83.5528	108.398	83.8589	108.398	83.6824
112.793	84.6341	112.793	84.5923	112.793	84.6778	112.793	84.5505	112.793	84.7249	112.793	84.5062	112.793	84.7761	112.793	84.4564	112.793	84.8316	112.793	84.3979	112.793	84.8904	112.793	84.3278	112.793	84.9497	112.793	84.2437	112.793	85.0046	112.793	84.1448	112.793	85.0482	112.793	84.0323	112.793	85.0713	112.793	83.9099	112.793	85.0641	112.793	83.7843	112.793	85.0178	112.793	83.665	112.793	84.9262	112.793	83.5645	112.793	84.7875	112.793	83.4964	112.793	84.6064	112.793	83.474	112.793	84.3938	112.793	83.5073	112.793	84.1664	112.793	83.6005	112.793	83.9448	112.793	83.7503
117.188	84.6992	117.188	84.6416	117.188	84.7594	117.188	84.5849	117.188	84.8229	117.188	84.5263	117.188	84.889	117.188	84.4626	117.188	84.9556	117.188	84.39	117.188	85.0195	117.188	84.3054	117.188	85.0757	117.188	84.2061	117.188	85.1183	117.188	84.0912	117.188	85.14	117.188	83.9618	117.188	85.1328	117.188	83.8214	117.188	85.0891	117.188	83.677	117.188	85.0025	117.188	83.5386	117.188	84.8699	117.188	83.4193	117.188	84.6924	117.188	83.3336	117.188	84.4769	117.188	83.296	117.188	84.2361	117.188	83.3177	117.188	83.9879	117.188	83.4041	117.188	83.7532	117.188	83.5528
120.117	84.8879	120.117	84.832	120.117	84.9447	120.117	84.7758	120.117	85.0024	120.117	84.7167	120.117	85.0593	120.117	84.6506	120.117	85.1129	120.117	84.5731	120.117	85.1595	120.117	84.4796	120.117	85.1948	120.117	84.3668	120.117	85.2131	120.117	84.2327	120.117	85.2079	120.117	84.0781	120.117	85.1718	120.117	83.9069	120.117	85.0978	120.117	83.7267	120.117	84.9798	120.117	83.5488	120.117	84.8153	120.117	83.3883	120.117	84.6066	120.117	83.2623	120.117	84.3618	120.117	83.1879	120.117	84.0956	120.117	83.1794	120.117	83.8284	120.117	83.2445	120.117	83.5831	120.117	83.3825
124.512	84.8422	124.512	84.7939	124.512	84.8895	124.512	84.7426	124.512	84.9371	124.512	84.6853	124.512	84.9856	124.512	84.6182	124.512	85.0344	124.512	84.5374	124.512	85.0817	124.512	84.4391	124.512	85.124	124.512	84.3203	124.512	85.1555	124.512	84.1799	124.512	85.1681	124.512	84.0193	124.512	85.152	124.512	83.8425	124.512	85.0971	124.512	83.6577	124.512	84.9945	124.512	83.4764	124.512	84.8394	124.512	83.314	124.512	84.6327	124.512	83.188	124.512	84.3825	124.512	83.1164	124.512	84.1048	124.512	83.114	124.512	83.8216	124.512	83.1894	124.512	83.5588	124.512	83.3414
128.906	84.5726	128.906	84.522	128.906	84.6292	128.906	84.4753	128.906	84.6938	128.906	84.4297	128.906	84.7674	128.906	84.3825	128.906	84.8501	128.906	84.3306	128.906	84.9397	128.906	84.2709	128.906	85.0318	128.906	84.2008	128.906	85.1194	128.906	84.1181	128.906	85.1924	128.906	84.0224	128.906	85.2389	128.906	83.9152	128.906	85.2461	128.906	83.8011	128.906	85.203	128.906	83.688	128.906	85.1023	128.906	83.5876	128.906	84.9431	128.906	83.5143	128.906	84.7323	128.906	83.484	128.906	84.4851	128.906	83.5105	128.906	84.2236	128.906	83.6026	128.906	83.9738	128.906	83.7603
133.301	84.6065	133.301	84.5434	133.301	84.6764	133.301	84.4862	133.301	84.7529	133.301	84.4327	133.301	84.8348	133.301	84.3795	133.301	84.9202	133.301	84.3226	133.301	85.0063	133.301	84.258	133.301	85.0891	133.301	84.1817	133.301	85.1631	133.301	84.0913	133.301	85.2208	133.301	83.9862	133.301	85.2524	133.301	83.8685	133.301	85.247	133.301	83.7439	133.301	85.1943	133.301	83.6218	133.301	85.0869	133.301	83.515	133.301	84.9231	133.301	83.4391	133.301	84.7085	133.301	83.4102	133.301	84.4569	133.301	83.442	133.301	84.1895	133.301	83.5421	133.301	83.9318	133.301	83.7092
139.16	84.6437	139.16	84.5843	139.16	84.7066	139.16	84.5277	139.16	84.7726	139.16	84.4718	139.16	84.8408	139.16	84.4132	139.16	84.9098	139.16	84.3475	139.16	84.9777	139.16	84.2701	139.16	85.0416	139.16	84.1768	139.16	85.0966	139.16	84.0651	139.16	85.1359	139.16	83.9353	139.16	85.1503	139.16	83.7909	139.16	85.1294	139.16	83.6394	139.16	85.0634	139.16	83.4925	139.16	84.9455	139.16	83.3655	139.16	84.7741	139.16	83.2754	139.16	84.5546	139.16	83.2392	139.16	84.3001	139.16	83.2695	139.16	84.0304	139.16	83.3721	139.16	83.7698	139.16	83.5434
143.555	84.651	143.555	84.5839	143.555	84.7182	143.555	84.5171	143.555	84.7849	143.555	84.4497	143.555	84.8507	143.555	84.3799	143.555	84.9154	143.555	84.3046	143.555	84.9786	143.555	84.2199	143.555	85.039	143.555	84.1226	143.555	85.0929	143.555	84.0101	143.555	85.1338	143.555	83.8823	143.555	85.1522	143.555	83.7423	143.555	85.1364	143.555	83.5967	143.555	85.0753	143.555	83.4564	143.555	84.9607	143.555	83.3356	143.555	84.7899	143.555	83.2511	143.555	84.5683	143.555	83.2193	143.555	84.3092	143.555	83.2534	143.555	84.0337	143.555	83.3598	143.555	83.7672	143.555	83.5354
147.949	84.6166	147.949	84.546	147.949	84.6839	147.949	84.4716	147.949	84.7481	147.949	84.3928	147.949	84.8101	147.949	84.3081	147.949	84.8707	147.949	84.2155	147.949	84.9305	147.949	84.1124	147.949	84.9883	147.949	83.9966	147.949	85.0407	147.949	83.8671	147.949	85.081	147.949	83.7249	147.949	85.0989	147.949	83.5742	147.949	85.0827	147.949	83.4226	147.949	85.0204	147.949	83.2816	147.949	84.9036	147.949	83.1656	147.949	84.7294	147.949	83.0906	147.949	84.5028	147.949	83.072	147.949	84.2372	147.949	83.1212	147.949	83.9533	147.949	83.2428	147.949	83.6766	147.949	83.4325
153.809	84.637	153.809	84.557	153.809	84.7122	153.809	84.4727	153.809	84.7818	153.809	84.3838	153.809	84.8454	153.809	84.2888	153.809	84.903	153.809	84.1854	153.809	84.9548	153.809	84.0709	153.809	85.0005	153.809	83.9429	153.809	85.0377	153.809	83.8001	153.809	85.0614	153.809	83.6438	153.809	85.0629	153.809	83.4784	153.809	85.0312	153.809	83.3122	153.809	84.955	153.809	83.1575	153.809	84.8255	153.809	83.0298	153.809	84.6398	153.809	82.9464	153.809	84.4025	153.809	82.9233	153.809	84.1265	153.809	82.9723	153.809	83.8327	153.809	83.0976	153.809	83.5464	153.809	83.2939
159.668	84.6294	159.668	84.5518	159.668	84.7037	159.668	84.4721	159.668	84.774	159.668	84.3905	159.668	84.8398	159.668	84.3058	159.668	84.9016	159.668	84.2157	159.668	84.9601	159.668	84.1169	159.668	85.0149	159.668	84.006	159.668	85.0636	159.668	83.8809	159.668	85.1004	159.668	83.7417	159.668	85.1155	159.668	83.5922	159.668	85.0971	159.668	83.44	159.668	85.0332	159.668	83.2971	159.668	84.9148	159.668	83.179	159.668	84.7389	159.668	83.1023	159.668	84.5109	159.668	83.0825	159.668	84.2444	159.668	83.1311	159.668	83.9604	159.668	83.2521	159.668	83.6842	159.668	83.441
165.527	84.6367	165.527	84.5627	165.527	84.7077	165.527	84.487	165.527	84.7741	165.527	84.4105	165.527	84.8357	165.527	84.3327	165.527	84.8929	165.527	84.2515	165.527	84.947	165.527	84.1639	165.527	84.9989	165.527	84.0663	165.527	85.0473	165.527	83.9561	165.527	85.0874	165.527	83.8331	165.527	85.1103	165.527	83.7003	165.527	85.1043	165.527	83.5652	165.527	85.0569	165.527	83.4391	165.527	84.9584	165.527	83.3366	165.527	84.8052	165.527	83.2734	165.527	84.6015	165.527	83.2636	165.527	84.3597	165.527	83.3168	165.527	84.0993	165.527	83.4359	165.527	83.8436	165.527	83.6159
171.387	84.7567	171.387	84.6728	171.387	84.832	171.387	84.5837	171.387	84.8958	171.387	84.4914	171.387	84.9458	171.387	84.3963	171.387	84.9819	171.387	84.2971	171.387	85.0053	171.387	84.1909	171.387	85.0185	171.387	84.0746	171.387	85.023	171.387	83.9459	171.387	85.0175	171.387	83.8047	171.387	84.9968	171.387	83.6545	171.387	84.9521	171.387	83.5026	171.387	84.873	171.387	83.3605	171.387	84.751	171.387	83.2423	171.387	84.5828	171.387	83.163	171.387	84.3726	171.387	83.1362	171.387	84.1323	171.387	83.1709	171.387	83.8807	171.387	83.2702	171.387	83.6395	171.387	83.4302
177.246	84.8972	177.246	84.8168	177.246	84.9571	177.246	84.7176	177.246	84.9952	177.246	84.6012	177.246	85.0115	177.246	84.4682	177.246	85.0081	177.246	84.3181	177.246	84.9884	177.246	84.1496	177.246	84.9557	177.246	83.9623	177.246	84.9119	177.246	83.7575	177.246	84.8552	177.246	83.5394	177.246	84.78	177.246	83.3162	177.246	84.6781	177.246	83.1003	177.246	84.5409	177.246	82.9068	177.246	84.3632	177.246	82.7518	177.246	84.1455	177.246	82.6501	177.246	83.8957	177.246	82.6121	177.246	83.628	177.246	82.6428	177.246	83.3605	177.246	82.7411	177.246	83.1123	177.246	82.9011
183.105	84.5067	183.105	84.4423	183.105	84.5583	183.105	84.3654	183.105	84.5975	183.105	84.2765	183.105	84.6266	183.105	84.175	183.105	84.65	183.105	84.0593	183.105	84.6733	183.105	83.9268	183.105	84.7007	183.105	83.7749	183.105	84.7326	183.105	83.6023	183.105	84.7623	183.105	83.4106	183.105	84.7763	183.105	83.2057	183.105	84.756	183.105	82.9986	183.105	84.6826	183.105	82.8051	183.105	84.5427	183.105	82.6444	183.105	84.3328	183.105	82.5359	183.105	84.0617	183.105	82.4961	183.105	83.7496	183.105	82.5353	183.105	83.4248	183.105	82.6563	183.105	83.1174	183.105	82.8544
188.965	84.4958	188.965	84.3951	188.965	84.5762	188.965	84.2778	188.965	84.6332	188.965	84.1482	188.965	84.6664	188.965	84.0092	188.965	84.6783	188.965	83.8627	188.965	84.6744	188.965	83.7091	188.965	84.6615	188.965	83.5481	188.965	84.6454	188.965	83.3801	188.965	84.628	188.965	83.2073	188.965	84.6051	188.965	83.0349	188.965	84.5661	188.965	82.8719	188.965	84.4974	188.965	82.7311	188.965	84.3861	188.965	82.6271	188.965	84.2251	188.965	82.5741	188.965	84.0157	188.965	82.583	188.965	83.7687	188.965	82.6586	188.965	83.5019	188.965	82.7994	188.965	83.2374	188.965	82.9969
196.289	84.7649	196.289	84.6819	196.289	84.8224	196.289	84.5761	196.289	84.8521	196.289	84.4498	196.289	84.8539	196.289	84.3043	196.289	84.83	196.289	84.1389	196.289	84.7847	196.289	83.9521	196.289	84.723	196.289	83.7427	196.289	84.6486	196.289	83.5109	196.289	84.5618	196.289	83.2603	196.289	84.4578	196.289	82.9991	196.289	84.3282	196.289	82.7408	196.289	84.1633	196.289	82.5032	196.289	83.9568	196.289	82.3064	196.289	83.7093	196.289	82.169	196.289	83.43	196.289	82.1042	196.289	83.1358	196.289	82.1177	196.289	82.8474	196.289	82.2079	196.289	82.5853	196.289	82.3674
203.613	84.6267	203.613	84.5301	203.613	84.7029	203.613	84.4169	203.613	84.7555	203.613	84.2899	203.613	84.783	203.613	84.1503	203.613	84.7866	203.613	83.9972	203.613	84.7701	203.613	83.8281	203.613	84.738	203.613	83.6401	203.613	84.6933	203.613	83.4314	203.613	84.6342	203.613	83.2035	203.613	84.5529	203.613	82.9622	203.613	84.4367	203.613	82.719	203.613	84.2724	203.613	82.49	203.613	84.0518	203.613	82.2941	203.613	83.7766	203.613	82.1499	203.613	83.4609	203.613	82.0724	203.613	83.1285	203.613	82.0706	203.613	82.8079	203.613	82.1476	203.613	82.5257	203.613	82.3015
210.938	84.5984	210.938	84.5002	210.938	84.6687	210.938	84.3784	210.938	84.7083	210.938	84.2365	210.938	84.7174	210.938	84.0763	210.938	84.7008	210.938	83.8973	210.938	84.6668	210.938	83.6979	210.938	84.6252	210.938	83.4767	210.938	84.5831	210.938	83.2347	210.938	84.5403	210.938	82.9772	210.938	84.4881	210.938	82.7145	210.938	84.4097	210.938	82.4621	210.938	84.2863	210.938	82.239	210.938	84.1032	210.938	82.0653	210.938	83.8563	210.938	81.9579	210.938	83.555	210.938	81.9274	210.938	83.2211	210.938	81.9775	210.938	82.8836	210.938	82.106	210.938	82.5714	210.938	82.3071
218.262	84.3629	218.262	84.2674	218.262	84.4329	218.262	84.1511	218.262	84.4744	218.262	84.0188	218.262	84.4881	218.262	83.8739	218.262	84.4785	218.262	83.7179	218.262	84.4537	218.262	83.5506	218.262	84.4234	218.262	83.3719	218.262	84.3952	218.262	83.1829	218.262	84.3719	218.262	82.9876	218.262	84.3477	218.262	82.7938	218.262	84.3097	218.262	82.6133	218.262	84.2407	218.262	82.4605	218.262	84.1255	218.262	82.3504	218.262	83.9568	218.262	82.296	218.262	83.7379	218.262	82.3054	218.262	83.4825	218.262	82.3808	218.262	83.2116	218.262	82.5188	218.262	82.9479	218.262	82.7117
225.586	84.4301	225.586	84.3225	225.586	84.5094	225.586	84.1941	225.586	84.5552	225.586	84.0516	225.586	84.5656	225.586	83.9001	225.586	84.5439	225.586	83.7417	225.586	84.4977	225.586	83.5763	225.586	84.437	225.586	83.403	225.586	84.3714	225.586	83.2224	225.586	84.3056	225.586	83.0386	225.586	84.2372	225.586	82.8597	225.586	84.1572	225.586	82.6981	225.586	84.0541	225.586	82.5682	225.586	83.9193	225.586	82.4834	225.586	83.7517	225.586	82.4518	225.586	83.5591	225.586	82.4745	225.586	83.3549	225.586	82.5458	225.586	83.1534	225.586	82.6567	225.586	82.9658	225.586	82.7986
232.91	84.6277	232.91	84.5305	232.91	84.6879	232.91	84.4043	232.91	84.7051	232.91	84.2564	232.91	84.678	232.91	84.0919	232.91	84.6103	232.91	83.9123	232.91	84.5115	232.91	83.716	232.91	84.3936	232.91	83.5005	232.91	84.2679	232.91	83.2656	232.91	84.14	232.91	83.0158	232.91	84.0068	232.91	82.7627	232.91	83.8589	232.91	82.5245	232.91	83.6852	232.91	82.3231	232.91	83.4813	232.91	82.1778	232.91	83.2534	232.91	82.0993	232.91	83.0184	232.91	82.0859	232.91	82.7965	232.91	82.1259	232.91	82.6028	232.91	82.2043	232.91	82.4419	232.91	82.3104
241.699	84.3897	241.699	84.274	241.699	84.469	241.699	84.1313	241.699	84.5043	241.699	83.9704	241.699	84.4929	241.699	83.7969	241.699	84.438	241.699	83.6128	241.699	84.3487	241.699	83.416	241.699	84.2375	241.699	83.2031	241.699	84.1156	241.699	82.9716	241.699	83.9874	241.699	82.7233	241.699	83.8477	241.699	82.4668	241.699	83.6829	241.699	82.2182	241.699	83.4791	241.699	81.999	241.699	83.2308	241.699	81.8311	241.699	82.9479	241.699	81.7286	241.699	82.6559	241.699	81.6929	241.699	82.3863	241.699	81.7132	241.699	82.163	241.699	81.7743	241.699	81.9925	241.699	81.8666
250.488	84.35	250.488	84.1584	250.488	84.4941	250.488	83.9356	250.488	84.5792	250.488	83.6985	250.488	84.6007	250.488	83.4615	250.488	84.5623	250.488	83.2333	250.488	84.476	250.488	83.016	250.488	84.3585	250.488	82.8058	250.488	84.2263	250.488	82.5957	250.488	84.0888	250.488	82.3796	250.488	83.9424	250.488	82.1562	250.488	83.7707	250.488	81.9322	250.488	83.5514	250.488	81.7216	250.488	83.2675	250.488	81.543	250.488	82.9197	250.488	81.412	250.488	82.5323	250.488	81.336	250.488	82.1502	250.488	81.3131	250.488	81.822	250.488	81.3405	250.488	81.5788	250.488	81.4237
259.277	84.5493	259.277	84.4066	259.277	84.644	259.277	84.2275	259.277	84.6847	259.277	84.0266	259.277	84.6725	259.277	83.8178	259.277	84.6161	259.277	83.6114	259.277	84.5296	259.277	83.4118	259.277	84.4294	259.277	83.2169	259.277	84.3283	259.277	83.02	259.277	84.2297	259.277	82.8133	259.277	84.1247	259.277	82.592	259.277	83.9934	259.277	82.3578	259.277	83.8121	259.277	82.121	259.277	83.563	259.277	81.8999	259.277	83.2436	259.277	81.7157	259.277	82.8717	259.277	81.5875	259.277	82.4846	259.277	81.5281	259.277	82.1286	259.277	81.5456	259.277	81.8429	259.277	81.6481
268.066	84.3858	268.066	84.241	268.066	84.4824	268.066	84.0559	268.066	84.5253	268.066	83.8387	268.066	84.5136	268.066	83.5969	268.066	84.4529	268.066	83.3366	268.066	84.3564	268.066	83.0626	268.066	84.2416	268.066	82.7799	268.066	84.1248	268.066	82.4947	268.066	84.0139	268.066	82.2165	268.066	83.9039	268.066	81.9581	268.066	83.778	268.066	81.7338	268.066	83.6144	268.066	81.5569	268.066	83.3962	268.066	81.4354	268.066	83.1192	268.066	81.3715	268.066	82.7959	268.066	81.362	268.066	82.4544	268.066	81.4032	268.066	82.1303	268.066	81.4948	268.066	81.8545	268.066	81.6427
276.855	84.1807	276.855	84.0389	276.855	84.2914	276.855	83.8769	276.855	84.3611	276.855	83.7019	276.855	84.3853	276.855	83.5146	276.855	84.3689	276.855	83.3089	276.855	84.325	276.855	83.0735	276.855	84.2702	276.855	82.7961	276.855	84.2152	276.855	82.4686	276.855	84.1566	276.855	82.0927	276.855	84.0743	276.855	81.6838	276.855	83.9377	276.855	81.2727	276.855	83.7187	276.855	80.9026	276.855	83.4038	276.855	80.6197	276.855	83.0029	276.855	80.4581	276.855	82.5481	276.855	80.4285	276.855	82.0837	276.855	80.5174	276.855	81.6501	276.855	80.6996	276.855	81.2712	276.855	80.9539
287.109	84.1187	287.109	84.0152	287.109	84.1705	287.109	83.8694	287.109	84.1649	287.109	83.6898	287.109	84.1042	287.109	83.4821	287.109	84.0015	287.109	83.2476	287.109	83.8797	287.109	82.9843	287.109	83.7664	287.109	82.6892	287.109	83.6836	287.109	82.3612	287.109	83.6377	287.109	82.0061	287.109	83.6144	287.109	81.6402	287.109	83.5826	287.109	81.2916	287.109	83.5049	287.109	80.9967	287.109	83.3509	287.109	80.791	287.109	83.107	287.109	80.6983	287.109	82.7821	287.109	80.7227	287.109	82.4053	287.109	80.8498	287.109	82.0164	287.109	81.0573	287.109	81.6503	287.109	81.3274
297.363	83.6435	297.363	83.4921	297.363	83.7408	297.363	83.31	297.363	83.7672	297.363	83.1201	297.363	83.7196	297.363	82.9373	297.363	83.6125	297.363	82.7652	297.363	83.4772	297.363	82.5969	297.363	83.3529	297.363	82.421	297.363	83.2716	297.363	82.2266	297.363	83.2411	297.363	82.0084	297.363	83.2402	297.363	81.7691	297.363	83.2272	297.363	81.5204	297.363	83.1586	297.363	81.2825	297.363	83.0053	297.363	81.0815	297.363	82.7613	297.363	80.9437	297.363	82.4447	297.363	80.8871	297.363	82.0926	297.363	80.9162	297.363	81.7481	297.363	81.0242	297.363	81.4455	297.363	81.2024
307.617	82.8798	307.617	82.6239	307.617	83.0488	307.617	82.33	307.617	83.103	307.617	82.0589	307.617	83.0415	307.617	81.866	307.617	82.894	307.617	81.7823	307.617	82.7212	307.617	81.8025	307.617	82.6039	307.617	81.8907	307.617	82.6127	307.617	81.9978	307.617	82.7656	307.617	82.0792	307.617	83.0109	307.617	82.105	307.617	83.2548	307.617	82.0632	307.617	83.4092	307.617	81.9591	307.617	83.42	307.617	81.8124	307.617	83.2735	307.617	81.6543	307.617	82.991	307.617	81.5222	307.617	82.621	307.617	81.4534	307.617	82.228	307.617	81.4794	307.617	81.8778	307.617	81.6204
319.336	85.0133	319.336	84.7133	319.336	85.162	319.336	84.2788	319.336	85.1488	319.336	83.734	319.336	84.969	319.336	83.1138	319.336	84.6264	319.336	82.4671	319.336	84.1384	319.336	81.8586	319.336	83.5473	319.336	81.3634	319.336	82.9347	319.336	81.0489	319.336	82.4262	319.336	80.9494	319.336	82.1565	319.336	81.0507	319.336	82.1877	319.336	81.3013	319.336	82.4585	319.336	81.6389	319.336	82.8341	319.336	82.0105	319.336	83.1912	319.336	82.3789	319.336	83.4577	319.336	82.7206	319.336	83.6089	319.336	83.021	319.336	83.6492	319.336	83.2714	319.336	83.5956	319.336	83.4655
329.59	84.8231	329.59	84.6129	329.59	84.9302	329.59	84.3098	329.59	84.9259	329.59	83.9251	329.59	84.8057	329.59	83.4715	329.59	84.5707	329.59	82.9644	329.59	84.2308	329.59	82.4258	329.59	83.8075	329.59	81.8909	329.59	83.3361	329.59	81.412	329.59	82.8642	329.59	81.056	329.59	82.4436	329.59	80.8841	329.59	82.119	329.59	80.9214	329.59	81.9193	329.59	81.1393	329.59	81.8576	329.59	81.4712	329.59	81.9296	329.59	81.8424	329.59	82.107	329.59	82.1919	329.59	82.3361	329.59	82.4757	329.59	82.5519	329.59	82.6643	329.59	82.6983	329.59	82.7401
341.309	84.7621	341.309	84.5196	341.309	84.8929	341.309	84.1824	341.309	84.9001	341.309	83.7712	341.309	84.7803	341.309	83.3074	341.309	84.5403	341.309	82.8102	341.309	84.2008	341.309	82.296	341.309	83.7967	341.309	81.7821	341.309	83.3739	341.309	81.2944	341.309	82.98	341.309	80.8749	341.309	82.6486	341.309	80.5783	341.309	82.3867	341.309	80.4537	341.309	82.1789	341.309	80.5165	341.309	82.0068	341.309	80.7358	341.309	81.8704	341.309	81.0466	341.309	81.7898	341.309	81.3746	341.309	81.7829	341.309	81.6551	341.309	81.8372	341.309	81.8433	341.309	81.9041	341.309	81.9214
353.027	84.7135	353.027	84.4377	353.027	84.8649	353.027	84.0568	353.027	84.8792	353.027	83.5942	353.027	84.7536	353.027	83.0738	353.027	84.4968	353.027	82.517	353.027	84.1306	353.027	81.9432	353.027	83.6899	353.027	81.3735	353.027	83.2214	353.027	80.8407	353.027	82.7776	353.027	80.3979	353.027	82.4042	353.027	80.1157	353.027	82.1257	353.027	80.0549	353.027	81.9403	353.027	80.2259	353.027	81.8296	353.027	80.5705	353.027	81.7725	353.027	80.9882	353.027	81.7551	353.027	81.3796	353.027	81.7719	353.027	81.6755	353.027	81.8176	353.027	81.8458	353.027	81.8731	353.027	81.899
366.211	85.0835	366.211	84.8958	366.211	85.1578	366.211	84.5981	366.211	85.1168	366.211	84.1953	366.211	84.9614	366.211	83.692	366.211	84.6962	366.211	83.0947	366.211	84.3332	366.211	82.4157	366.211	83.8998	366.211	81.6817	366.211	83.4427	366.211	80.9459	366.211	83.0184	366.211	80.2929	366.211	82.6647	366.211	79.8184	366.211	82.378	366.211	79.5793	366.211	82.1222	366.211	79.5593	366.211	81.8667	366.211	79.6946	366.211	81.6177	366.211	79.9238	366.211	81.413	366.211	80.2051	366.211	81.2814	366.211	80.5035	366.211	81.2052	366.211	80.7785	366.211	81.1271	366.211	80.9919
379.395	85.2146	379.395	85.0044	379.395	85.3267	379.395	84.715	379.395	85.3224	379.395	84.3623	379.395	85.1872	379.395	83.9559	379.395	84.9148	379.395	83.4957	379.395	84.5112	379.395	82.9716	379.395	83.9966	379.395	82.3715	379.395	83.407	379.395	81.696	379.395	82.7956	379.395	80.9798	379.395	82.2299	379.395	80.3122	379.395	81.7757	379.395	79.8305	379.395	81.4746	379.395	79.6589	379.395	81.3339	379.395	79.8207	379.395	81.3355	379.395	80.2202	379.395	81.4449	379.395	80.7145	379.395	81.609	379.395	81.1823	379.395	81.7591	379.395	81.5451	379.395	81.827	379.395	81.7628
392.578	84.7378	392.578	84.4955	392.578	84.8907	392.578	84.187	392.578	84.933	392.578	83.8332	392.578	84.8499	392.578	83.4477	392.578	84.6381	392.578	83.0324	392.578	84.309	392.578	82.576	392.578	83.8889	392.578	82.0623	392.578	83.4155	392.578	81.486	392.578	82.9284	392.578	80.8737	392.578	82.4535	392.578	80.3015	392.578	81.9914	392.578	79.8902	392.578	81.5278	392.578	79.7534	392.578	81.0719	392.578	79.9194	392.578	80.6974	392.578	80.3034	392.578	80.5276	392.578	80.7617	392.578	80.6312	392.578	81.1584	392.578	80.9283	392.578	81.3963	392.578	81.243	392.578	81.4236
405.762	84.7389	405.762	84.4922	405.762	84.8655	405.762	84.1519	405.762	84.8507	405.762	83.7447	405.762	84.6851	405.762	83.2906	405.762	84.377	405.762	82.7982	405.762	83.9551	405.762	82.2633	405.762	83.4648	405.762	81.6781	405.762	82.9606	405.762	81.0496	405.762	82.4932	405.762	80.4205	405.762	82.0962	405.762	79.8787	405.762	81.7746	405.762	79.5366	405.762	81.5078	405.762	79.4777	405.762	81.271	405.762	79.7018	405.762	81.0658	405.762	80.1206	405.762	80.9346	405.762	80.6014	405.762	80.932	405.762	81.0167	405.762	81.0603	405.762	81.2752	405.762	81.2369	405.762	81.3393
420.41	84.9979	420.41	84.7967	420.41	85.0874	420.41	84.5114	420.41	85.0423	420.41	84.1653	420.41	84.8523	420.41	83.7692	420.41	84.527	420.41	83.3171	420.41	84.0962	420.41	82.7884	420.41	83.6035	420.41	82.16	420.41	83.0953	420.41	81.427	420.41	82.6087	420.41	80.627	420.41	82.1605	420.41	79.8642	420.41	81.7418	420.41	79.3034	420.41	81.3308	420.41	79.0968	420.41	80.9202	420.41	79.2715	420.41	80.5463	420.41	79.7067	420.41	80.2951	420.41	80.2206	420.41	80.256	420.41	80.6522	420.41	80.4321	420.41	80.8923	420.41	80.7026	420.41	80.897
435.059	84.3901	435.059	84.1732	435.059	84.4808	435.059	83.8577	435.059	84.4303	435.059	83.4749	435.059	84.2419	435.059	83.0514	435.059	83.9378	435.059	82.6017	435.059	83.5531	435.059	82.1252	435.059	83.1285	435.059	81.6095	435.059	82.7038	435.059	81.0441	435.059	82.3094	435.059	80.4407	435.059	81.9527	435.059	79.8539	435.059	81.6138	435.059	79.3859	435.059	81.2666	435.059	79.156	435.059	80.9152	435.059	79.2303	435.059	80.6147	435.059	79.5632	435.059	80.4454	435.059	80.0161	435.059	80.4468	435.059	80.4337	435.059	80.5744	435.059	80.707	435.059	80.7264	435.059	80.796
451.172	85.1657	451.172	84.8572	451.172	85.3359	451.172	84.4393	451.172	85.3373	451.172	83.9364	451.172	85.1443	451.172	83.3613	451.172	84.7504	451.172	82.7066	451.172	84.1845	451.172	81.9445	451.172	83.5179	451.172	81.0455	451.172	82.8496	451.172	80.0134	451.172	82.2674	451.172	78.9313	451.172	81.7943	451.172	78.0066	451.172	81.3635	451.172	77.5376	451.172	80.8618	451.172	77.7017	451.172	80.2308	451.172	78.3667	451.172	79.5828	451.172	79.2374	451.172	79.2452	451.172	80.0734	451.172	79.491	451.172	80.7276	451.172	80.1452	451.172	81.1032	451.172	80.7843	451.172	81.1307
465.82	84.9439	465.82	84.6615	465.82	85.0828	465.82	84.2734	465.82	85.0468	465.82	83.8146	465.82	84.8245	465.82	83.3085	465.82	84.4331	465.82	82.7595	465.82	83.9141	465.82	82.1535	465.82	83.3165	465.82	81.4673	465.82	82.6912	465.82	80.6851	465.82	82.1025	465.82	79.8221	465.82	81.6189	465.82	78.9571	465.82	81.2574	465.82	78.2554	465.82	80.9468	465.82	77.922	465.82	80.5711	465.82	78.0493	465.82	80.0555	465.82	78.5141	465.82	79.4478	465.82	79.0687	465.82	78.9601	465.82	79.4866	465.82	78.8464	465.82	79.6276	465.82	79.1082	465.82	79.4621
483.398	84.7449	483.398	84.5358	483.398	84.8042	483.398	84.2023	483.398	84.7036	483.398	83.7804	483.398	84.4488	483.398	83.3028	483.398	84.0612	483.398	82.7765	483.398	83.576	483.398	82.1692	483.398	83.0408	483.398	81.4219	483.398	82.5103	483.398	80.4836	483.398	82.0335	483.398	79.3622	483.398	81.6313	483.398	78.1941	483.398	81.2834	483.398	77.2958	483.398	80.9458	483.398	77.0303	483.398	80.5882	483.398	77.4638	483.398	80.2264	483.398	78.3102	483.398	79.9396	483.398	79.228	483.398	79.8501	483.398	79.9782	483.398	80.0155	483.398	80.4218	483.398	80.3147	483.398	80.5123
499.512	84.6343	499.512	84.3476	499.512	84.7796	499.512	83.9636	499.512	84.75	499.512	83.5301	499.512	84.5302	499.512	83.0889	499.512	84.1285	499.512	82.6554	499.512	83.5763	499.512	82.1988	499.512	82.9268	499.512	81.6412	499.512	82.2577	499.512	80.886	499.512	81.6653	499.512	79.864	499.512	81.2148	499.512	78.5936	499.512	80.8818	499.512	77.2746	499.512	80.5718	499.512	76.3661	499.512	80.2138	499.512	76.3415	499.512	79.8469	499.512	77.1284	499.512	79.624	499.512	78.2207	499.512	79.6742	499.512	79.2077	499.512	79.9326	499.512	79.8902	499.512	80.179	499.512	80.2046
517.09	84.9273	517.09	84.551	517.09	85.1123	517.09	84.0559	517.09	85.0778	517.09	83.5424	517.09	84.836	517.09	83.0933	517.09	84.4259	517.09	82.7221	517.09	83.8978	517.09	82.3669	517.09	83.3046	517.09	81.9311	517.09	82.7036	517.09	81.327	517.09	82.1505	517.09	80.4979	517.09	81.6719	517.09	79.4499	517.09	81.2339	517.09	78.3389	517.09	80.7485	517.09	77.5846	517.09	80.1375	517.09	77.6858	517.09	79.452	517.09	78.5982	517.09	78.9994	517.09	79.7718	517.09	79.1927	517.09	80.748	517.09	79.9776	517.09	81.297	517.09	80.8288	517.09	81.3228
536.133	84.8256	536.133	84.3547	536.133	84.9921	536.133	83.6346	536.133	84.8406	536.133	82.786	536.133	84.3851	536.133	82.0035	536.133	83.6654	536.133	81.4818	536.133	82.7589	536.133	81.2663	536.133	81.8129	536.133	81.1992	536.133	81.0682	536.133	81.0397	536.133	80.7645	536.133	80.6022	536.133	80.8994	536.133	79.8265	536.133	81.18	536.133	78.8206	536.133	81.269	536.133	77.8972	536.133	80.9592	536.133	77.5053	536.133	80.2123	536.133	77.8737	536.133	79.2324	536.133	78.723	536.133	78.5657	536.133	79.5599	536.133	78.7179	536.133	80.0255	536.133	79.4028	536.133	79.958
555.176	85.3216	555.176	84.8635	555.176	85.4979	555.176	84.1526	555.176	85.3877	555.176	83.2666	555.176	84.998	555.176	82.3473	555.176	84.3459	555.176	81.5623	555.176	83.4587	555.176	80.9941	555.176	82.3806	555.176	80.5575	555.176	81.2162	555.176	80.0589	555.176	80.2259	555.176	79.3246	555.176	79.7836	555.176	78.2914	555.176	79.9658	555.176	77.0767	555.176	80.3628	555.176	76.084	555.176	80.4918	555.176	75.9318	555.176	80.0731	555.176	76.7668	555.176	79.0958	555.176	77.9893	555.176	78.0188	555.176	78.9825	555.176	77.7644	555.176	79.4267	555.176	78.4622	555.176	79.2131
574.219	85.3486	574.219	84.9197	574.219	85.5199	574.219	84.2431	574.219	85.4479	574.219	83.3736	574.219	85.1531	574.219	82.4322	574.219	84.6401	574.219	81.5971	574.219	83.8827	574.219	81.0098	574.219	82.8462	574.219	80.6332	574.219	81.5605	574.219	80.2581	574.219	80.2304	574.219	79.6608	574.219	79.2734	574.219	78.7142	574.219	79.0209	574.219	77.4303	574.219	79.3022	574.219	76.0756	574.219	79.6667	574.219	75.3353	574.219	79.7942	574.219	75.7914	574.219	79.5824	574.219	76.9947	574.219	79.16	574.219	78.1497	574.219	78.8645	574.219	78.8531	574.219	78.9074	574.219	79.0391
594.727	85.0796	594.727	84.6809	594.727	85.1818	594.727	84.0049	594.727	84.9978	594.727	83.0892	594.727	84.5751	594.727	82.0109	594.727	83.9702	594.727	80.942	594.727	83.2006	594.727	80.1451	594.727	82.2479	594.727	79.7701	594.727	81.1386	594.727	79.6525	594.727	80.049	594.727	79.4627	594.727	79.3147	594.727	78.9683	594.727	79.1594	594.727	78.1557	594.727	79.3669	594.727	77.2898	594.727	79.4913	594.727	76.8979	594.727	79.2706	594.727	77.3706	594.727	78.8113	594.727	78.4413	594.727	78.5915	594.727	79.5083	594.727	78.9923	594.727	80.1522	594.727	79.7169	594.727	80.2064
615.234	85.2228	615.234	84.84	615.234	85.3174	615.234	84.1679	615.234	85.1437	615.234	83.2441	615.234	84.7204	615.234	82.16	615.234	84.0586	615.234	81.0736	615.234	83.1661	615.234	80.2037	615.234	82.0532	615.234	79.738	615.234	80.7643	615.234	79.6442	615.234	79.4474	615.234	79.6269	615.234	78.4058	615.234	79.3598	615.234	78.029	615.234	78.6918	615.234	78.4415	615.234	77.7141	615.234	79.1617	615.234	76.8356	615.234	79.4739	615.234	76.6852	615.234	78.9443	615.234	77.3628	615.234	77.6824	615.234	78.2043	615.234	76.756	615.234	78.576	615.234	77.2441	615.234	78.1986
637.207	85.01	637.207	84.5589	637.207	85.1527	637.207	83.8193	637.207	85.0037	637.207	82.8524	637.207	84.6312	637.207	81.7687	637.207	84.1251	637.207	80.705	637.207	83.4847	637.207	79.7895	637.207	82.5826	637.207	79.1351	637.207	81.314	637.207	78.779	637.207	79.771	637.207	78.537	637.207	78.3101	637.207	78.0815	637.207	77.4487	637.207	77.2625	637.207	77.4478	637.207	76.3032	637.207	77.9752	637.207	75.7817	637.207	78.4628	637.207	76.1676	637.207	78.6029	637.207	77.1929	637.207	78.5206	637.207	78.241	637.207	78.5925	637.207	78.9244	637.207	78.9027	637.207	79.1165
659.18	84.6889	659.18	84.4061	659.18	84.623	659.18	83.7255	659.18	84.3109	659.18	82.6673	659.18	83.8558	659.18	81.3492	659.18	83.2709	659.18	80.0043	659.18	82.4934	659.18	78.9022	659.18	81.5191	659.18	78.1379	659.18	80.4323	659.18	77.5975	659.18	79.302	659.18	77.2184	659.18	78.2117	659.18	77.0053	659.18	77.4233	659.18	76.7929	659.18	77.2038	659.18	76.3499	659.18	77.3823	659.18	75.8594	659.18	77.5288	659.18	76.0343	659.18	77.4311	659.18	77.0345	659.18	77.2377	659.18	78.1164	659.18	77.372	659.18	78.6952	659.18	77.9871	659.18	78.5989
682.617	84.4645	682.617	84.1619	682.617	84.4732	682.617	83.5222	682.617	84.2108	682.617	82.5357	682.617	83.6798	682.617	81.3006	682.617	82.8963	682.617	80.063	682.617	81.8957	682.617	79.109	682.617	80.7199	682.617	78.4974	682.617	79.4832	682.617	78.0343	682.617	78.4607	682.617	77.5385	682.617	77.8634	682.617	76.9419	682.617	77.5186	682.617	76.2477	682.617	77.2661	682.617	75.6253	682.617	77.3043	682.617	75.6027	682.617	77.4708	682.617	76.6413	682.617	77.1462	682.617	78.2401	682.617	76.5761	682.617	79.5551	682.617	77.1945	682.617	80.1577	682.617	78.767	682.617	79.9006
707.52	84.6733	707.52	84.4473	707.52	84.6629	707.52	83.8533	707.52	84.5052	707.52	82.8157	707.52	84.1726	707.52	81.3747	707.52	83.5684	707.52	79.7348	707.52	82.6568	707.52	78.3293	707.52	81.4917	707.52	77.6583	707.52	80.095	707.52	77.6142	707.52	78.391	707.52	77.4515	707.52	76.4576	707.52	76.7887	707.52	75.2178	707.52	75.9443	707.52	75.632	707.52	75.2759	707.52	76.3309	707.52	74.689	707.52	76.3526	707.52	74.5856	707.52	76.442	707.52	75.9381	707.52	77.2307	707.52	77.8964	707.52	78.2099	707.52	79.1738	707.52	79.033	707.52	79.4774
732.422	84.5251	732.422	84.3111	732.422	84.4325	732.422	83.7822	732.422	84.0657	732.422	82.9128	732.422	83.5205	732.422	81.7249	732.422	82.8764	732.422	80.4167	732.422	82.061	732.422	79.3628	732.422	80.9114	732.422	78.8048	732.422	79.4085	732.422	78.5771	732.422	77.791	732.422	78.3779	732.422	76.5157	732.422	77.9581	732.422	76.0987	732.422	77.1078	732.422	76.4186	732.422	75.875	732.422	76.6607	732.422	74.7961	732.422	76.3642	732.422	74.5548	732.422	75.6291	732.422	75.252	732.422	74.8596	732.422	76.363	732.422	74.8823	732.422	77.1313	732.422	75.9907	732.422	77.0149
757.324	85.3944	757.324	85.2282	757.324	85.2126	757.324	84.5948	757.324	84.8612	757.324	83.5487	757.324	84.367	757.324	82.268	757.324	83.6033	757.324	80.9233	757.324	82.5217	757.324	79.6352	757.324	81.2522	757.324	78.5336	757.324	79.9534	757.324	77.7571	757.324	78.6355	757.324	77.5237	757.324	77.2834	757.324	77.8626	757.324	76.5118	757.324	78.166	757.324	77.0914	757.324	77.8092	757.324	77.8801	757.324	76.9815	757.324	77.792	757.324	76.9405	757.324	77.295	757.324	77.9394	757.324	77.1527	757.324	78.6859	757.324	76.8861	757.324	78.5	757.324	76.6505	757.324	77.4669
785.156	84.7926	785.156	84.3138	785.156	84.9876	785.156	83.9659	785.156	84.7144	785.156	83.7338	785.156	84.2328	785.156	83.1896	785.156	83.7316	785.156	82.0784	785.156	82.9085	785.156	80.6387	785.156	81.4423	785.156	79.3269	785.156	79.3988	785.156	78.0432	785.156	77.1378	785.156	76.6557	785.156	75.08	785.156	75.4344	785.156	73.571	785.156	73.9327	785.156	73.6629	785.156	71.7151	785.156	75.7608	785.156	70.304	785.156	77.4684	785.156	71.2458	785.156	77.2841	785.156	74.1959	785.156	74.7269	785.156	77.4352	785.156	72.616	785.156	79.2599	785.156	76.3861	785.156	79.0381
811.523	84.6164	811.523	84.4369	811.523	84.7705	811.523	84.1371	811.523	84.7744	811.523	83.6391	811.523	84.2624	811.523	82.8485	811.523	83.043	811.523	81.5727	811.523	81.3871	811.523	79.6496	811.523	79.8543	811.523	77.2529	811.523	78.7517	811.523	75.1123	811.523	77.8391	811.523	73.867	811.523	76.6338	811.523	73.4528	811.523	75.2491	811.523	73.8605	811.523	74.5398	811.523	74.8041	811.523	74.1322	811.523	75.7009	811.523	73.9373	811.523	76.4711	811.523	74.9818	811.523	77.1309	811.523	76.1519	811.523	77.3511	811.523	76.6774	811.523	77.0169	811.523	76.6659	811.523	76.6231
840.82	84.8188	840.82	84.6197	840.82	84.587	840.82	84.1495	840.82	84.0201	840.82	83.5347	840.82	83.4209	840.82	82.6626	840.82	82.8907	840.82	81.425	840.82	82.2241	840.82	80.0398	840.82	81.2825	840.82	78.7176	840.82	80.0872	840.82	77.0033	840.82	78.6606	840.82	74.7895	840.82	76.8312	840.82	73.6	840.82	74.2988	840.82	74.0383	840.82	72.2956	840.82	74.5642	840.82	73.2343	840.82	74.7097	840.82	74.906	840.82	75.2615	840.82	75.7612	840.82	76.501	840.82	75.3837	840.82	77.5733	840.82	73.6919	840.82	77.584	840.82	73.3209	840.82	75.9179
870.117	84.1297	870.117	84.3946	870.117	84.0526	870.117	84.4894	870.117	83.8514	870.117	83.962	870.117	83.0481	870.117	82.5826	870.117	81.6447	870.117	80.3768	870.117	80.1203	870.117	78.1564	870.117	78.9485	870.117	77.348	870.117	77.958	870.117	77.4157	870.117	76.8244	870.117	76.9863	870.117	75.4884	870.117	75.8872	870.117	73.9109	870.117	75.0253	870.117	73.5846	870.117	74.4441	870.117	74.8273	870.117	73.5679	870.117	74.5886	870.117	73.4763	870.117	72.1341	870.117	74.8086	870.117	71.6122	870.117	76.0307	870.117	73.8433	870.117	76.4825	870.117	75.3181	870.117	76.1922
900.879	85.3215	900.879	84.6911	900.879	85.0641	900.879	83.9008	900.879	83.8231	900.879	83.4587	900.879	82.497	900.879	83.0242	900.879	82.0729	900.879	82.047	900.879	81.905	900.879	80.1928	900.879	81.1354	900.879	77.4883	900.879	79.7282	900.879	75.226	900.879	78.1195	900.879	74.8926	900.879	76.5901	900.879	75.0426	900.879	74.9976	900.879	75.1649	900.879	73.2311	900.879	75.5338	900.879	73.2803	900.879	75.4132	900.879	75.8187	900.879	74.513	900.879	76.8305	900.879	75.1551	900.879	74.7312	900.879	77.2097	900.879	72.6601	900.879	78.3833	900.879	76.0012	900.879	78.1237
933.105	83.9813	933.105	84.1667	933.105	84.1742	933.105	84.3344	933.105	84.0241	933.105	83.8169	933.105	83.0233	933.105	82.4845	933.105	81.5206	933.105	80.5979	933.105	80.0675	933.105	78.3651	933.105	79.0347	933.105	75.726	933.105	78.5629	933.105	73.5469	933.105	78.3473	933.105	73.2584	933.105	77.7261	933.105	73.7537	933.105	76.4894	933.105	73.9491	933.105	75.2301	933.105	73.8568	933.105	74.402	933.105	74.329	933.105	73.7531	933.105	75.0633	933.105	73.6267	933.105	75.2188	933.105	74.6196	933.105	75.6397	933.105	74.9026	933.105	76.0159	933.105	74.5135	933.105	75.3103
965.332	85.3051	965.332	84.8104	965.332	85.0299	965.332	84.2303	965.332	84.0698	965.332	84.0523	965.332	82.9614	965.332	83.6251	965.332	81.9345	965.332	82.135	965.332	81.1407	965.332	79.4583	965.332	80.5384	965.332	76.6306	965.332	79.4782	965.332	75.2729	965.332	77.7483	965.332	75.2483	965.332	76.0263	965.332	75.5571	965.332	74.9611	965.332	75.7517	965.332	74.1205	965.332	75.9549	965.332	74.3198	965.332	76.0499	965.332	75.9934	965.332	75.4609	965.332	76.409	965.332	74.5482	965.332	74.9568	965.332	74.9386	965.332	74.3654	965.332	76.5913	965.332	76.4271	965.332	77.4742
1,000.49	84.5562	1,000.49	84.9829	1,000.49	83.8765	1,000.49	84.797	1,000.49	83.4232	1,000.49	84.0485	1,000.49	83.0792	1,000.49	82.9799	1,000.49	82.3841	1,000.49	81.6515	1,000.49	81.2478	1,000.49	79.9541	1,000.49	79.9822	1,000.49	77.9819	1,000.49	78.8284	1,000.49	75.915	1,000.49	77.5592	1,000.49	74.7426	1,000.49	75.5868	1,000.49	75.7742	1,000.49	72.9398	1,000.49	76.6657	1,000.49	71.2201	1,000.49	75.3971	1,000.49	71.0553	1,000.49	73.3076	1,000.49	71.863	1,000.49	73.9798	1,000.49	73.2872	1,000.49	75.5407	1,000.49	73.969	1,000.49	76.7857	1,000.49	72.5258	1,000.49	77.3928	1,000.49	72.8341	1,000.49	76.2737
1,035.64	84.6887	1,035.64	84.8876	1,035.64	83.9911	1,035.64	84.7641	1,035.64	83.0645	1,035.64	84.388	1,035.64	82.7598	1,035.64	83.5417	1,035.64	82.7626	1,035.64	81.9641	1,035.64	82.0747	1,035.64	79.643	1,035.64	80.7179	1,035.64	76.8647	1,035.64	78.934	1,035.64	73.8945	1,035.64	76.7656	1,035.64	71.1856	1,035.64	75.0617	1,035.64	72.3256	1,035.64	74.3396	1,035.64	75.2161	1,035.64	73.7882	1,035.64	75.5723	1,035.64	73.0551	1,035.64	74.0538	1,035.64	74.0566	1,035.64	73.7943	1,035.64	74.7526	1,035.64	75.8208	1,035.64	74.3169	1,035.64	77.2439	1,035.64	74.1454	1,035.64	76.9587	1,035.64	73.065	1,035.64	74.6308
1,072.27	84.2389	1,072.27	84.4596	1,072.27	84.0083	1,072.27	84.4746	1,072.27	83.4901	1,072.27	84.0299	1,072.27	82.6104	1,072.27	82.9898	1,072.27	82.1552	1,072.27	81.3086	1,072.27	82.2229	1,072.27	78.9921	1,072.27	81.3352	1,072.27	75.7244	1,072.27	78.8225	1,072.27	72.2328	1,072.27	76.2272	1,072.27	72.7144	1,072.27	75.3075	1,072.27	71.8441	1,072.27	75.0575	1,072.27	69.6882	1,072.27	75.043	1,072.27	73.0392	1,072.27	74.4833	1,072.27	74.4281	1,072.27	72.346	1,072.27	74.2872	1,072.27	72.4849	1,072.27	75.559	1,072.27	74.0537	1,072.27	76.4994	1,072.27	73.8404	1,072.27	76.1729	1,072.27	73.8364	1,072.27	75.0638
1,108.89	84.3296	1,108.89	84.1303	1,108.89	83.3907	1,108.89	83.5474	1,108.89	82.6484	1,108.89	83.422	1,108.89	83.0605	1,108.89	83.2794	1,108.89	82.4978	1,108.89	82.5018	1,108.89	80.889	1,108.89	81.2143	1,108.89	79.6443	1,108.89	79.5831	1,108.89	78.7972	1,108.89	77.3305	1,108.89	77.1678	1,108.89	75.3018	1,108.89	74.2096	1,108.89	74.8895	1,108.89	70.9798	1,108.89	73.7561	1,108.89	71.7469	1,108.89	73.3061	1,108.89	71.2956	1,108.89	74.4067	1,108.89	72.1133	1,108.89	73.5103	1,108.89	75.2775	1,108.89	71.9436	1,108.89	75.5551	1,108.89	72.7947	1,108.89	74.9533	1,108.89	74.4044	1,108.89	74.4527	1,108.89	74.748
1,148.44	83.0404	1,148.44	84.1251	1,148.44	82.7074	1,148.44	84.1509	1,148.44	83.3108	1,148.44	82.7876	1,148.44	83.122	1,148.44	81.6252	1,148.44	82.0822	1,148.44	81.3846	1,148.44	81.2103	1,148.44	80.8114	1,148.44	80.5989	1,148.44	79.8887	1,148.44	79.5027	1,148.44	78.2117	1,148.44	77.5872	1,148.44	74.4915	1,148.44	74.9528	1,148.44	72.239	1,148.44	71.8768	1,148.44	72.8142	1,148.44	73.6897	1,148.44	71.9187	1,148.44	75.9914	1,148.44	72.5356	1,148.44	74.2426	1,148.44	73.8608	1,148.44	71.1514	1,148.44	74.0802	1,148.44	75.5025	1,148.44	74.8829	1,148.44	76.5389	1,148.44	75.0964	1,148.44	74.6787	1,148.44	73.9011
1,189.45	82.971	1,189.45	83.5862	1,189.45	83.3389	1,189.45	83.8055	1,189.45	83.4141	1,189.45	82.4833	1,189.45	82.0893	1,189.45	80.1241	1,189.45	80.7811	1,189.45	78.1581	1,189.45	80.7684	1,189.45	77.7525	1,189.45	80.5675	1,189.45	78.9288	1,189.45	79.4289	1,189.45	79.0708	1,189.45	77.4832	1,189.45	76.6871	1,189.45	74.666	1,189.45	74.0176	1,189.45	70.3041	1,189.45	73.4699	1,189.45	69.5475	1,189.45	72.4457	1,189.45	71.2557	1,189.45	70.9557	1,189.45	68.8485	1,189.45	71.5159	1,189.45	66.8759	1,189.45	73.4696	1,189.45	70.102	1,189.45	74.9321	1,189.45	74.788	1,189.45	75.2406	1,189.45	76.1527	1,189.45	75.3415
1,230.47	83.6783	1,230.47	83.4242	1,230.47	83.7375	1,230.47	82.752	1,230.47	83.5603	1,230.47	81.7062	1,230.47	82.6492	1,230.47	80.8537	1,230.47	81.1137	1,230.47	80.3869	1,230.47	80.0087	1,230.47	79.1725	1,230.47	79.8944	1,230.47	76.6759	1,230.47	79.6277	1,230.47	74.4677	1,230.47	78.3844	1,230.47	71.974	1,230.47	75.986	1,230.47	68.9398	1,230.47	71.9005	1,230.47	71.2622	1,230.47	65.063	1,230.47	73.5417	1,230.47	71.8797	1,230.47	74.1132	1,230.47	73.8398	1,230.47	73.6355	1,230.47	70.3249	1,230.47	72.3014	1,230.47	66.9144	1,230.47	73.3011	1,230.47	73.3992	1,230.47	76.019	1,230.47	75.5429	1,230.47	76.5759
1,274.41	83.7822	1,274.41	82.946	1,274.41	84.5139	1,274.41	82.5402	1,274.41	83.5489	1,274.41	81.2134	1,274.41	81.4368	1,274.41	78.6421	1,274.41	81.1449	1,274.41	76.9784	1,274.41	80.9772	1,274.41	76.655	1,274.41	79.2392	1,274.41	76.1478	1,274.41	77.0895	1,274.41	76.6687	1,274.41	75.4959	1,274.41	76.5897	1,274.41	72.9815	1,274.41	73.6164	1,274.41	67.2107	1,274.41	71.7437	1,274.41	60.3676	1,274.41	74.0986	1,274.41	68.1772	1,274.41	72.3454	1,274.41	70.9657	1,274.41	70.9349	1,274.41	71.4183	1,274.41	72.0784	1,274.41	62.7139	1,274.41	74.4314	1,274.41	71.9627	1,274.41	75.9843	1,274.41	75.432	1,274.41	75.7259
1,319.82	84.2883	1,319.82	83.5186	1,319.82	84.3619	1,319.82	82.391	1,319.82	83.4317	1,319.82	80.8677	1,319.82	82.1923	1,319.82	79.2302	1,319.82	80.884	1,319.82	78.5751	1,319.82	78.8872	1,319.82	77.8723	1,319.82	77.3968	1,319.82	74.6562	1,319.82	76.7941	1,319.82	72.5601	1,319.82	76.2592	1,319.82	72.5079	1,319.82	75.5186	1,319.82	70.4051	1,319.82	74.0019	1,319.82	62.9994	1,319.82	68.8854	1,319.82	61.8643	1,319.82	62.8653	1,319.82	70.1361	1,319.82	72.2859	1,319.82	73.7299	1,319.82	74.4213	1,319.82	72.705	1,319.82	70.619	1,319.82	72.0641	1,319.82	70.5198	1,319.82	74.4653	1,319.82	75.9584	1,319.82	76.6713
1,366.7	84.769	1,366.7	84.1839	1,366.7	84.4217	1,366.7	83.0308	1,366.7	83.579	1,366.7	81.5208	1,366.7	82.8928	1,366.7	79.6076	1,366.7	81.4192	1,366.7	77.7676	1,366.7	78.9267	1,366.7	76.0307	1,366.7	76.737	1,366.7	72.926	1,366.7	76.3561	1,366.7	71.9518	1,366.7	77.0405	1,366.7	74.016	1,366.7	76.6812	1,366.7	71.4013	1,366.7	74.8273	1,366.7	61.0017	1,366.7	71.3978	1,366.7	63.4729	1,366.7	58.7804	1,366.7	71.9813	1,366.7	71.0143	1,366.7	73.7687	1,366.7	73.7792	1,366.7	73.1418	1,366.7	69.6998	1,366.7	74.4221	1,366.7	71.5141	1,366.7	76.1935	1,366.7	74.1695	1,366.7	75.6506
1,413.57	84.368	1,413.57	84.248	1,413.57	83.8171	1,413.57	82.8082	1,413.57	83.3573	1,413.57	80.6246	1,413.57	82.273	1,413.57	79.9049	1,413.57	80.4718	1,413.57	79.8539	1,413.57	79.0151	1,413.57	77.9357	1,413.57	77.3597	1,413.57	73.3488	1,413.57	75.0426	1,413.57	69.464	1,413.57	73.3221	1,413.57	68.7009	1,413.57	72.9483	1,413.57	68.472	1,413.57	72.294	1,413.57	65.7622	1,413.57	69.3892	1,413.57	64.2591	1,413.57	62.2795	1,413.57	71.8168	1,413.57	68.2359	1,413.57	73.7595	1,413.57	72.4211	1,413.57	71.9949	1,413.57	69.9386	1,413.57	70.5252	1,413.57	69.3796	1,413.57	73.3836	1,413.57	72.9045	1,413.57	74.2166
1,463.38	84.1774	1,463.38	83.8006	1,463.38	83.7331	1,463.38	82.7384	1,463.38	83.3109	1,463.38	81.641	1,463.38	82.2112	1,463.38	80.7244	1,463.38	80.125	1,463.38	78.0611	1,463.38	78.1811	1,463.38	73.126	1,463.38	77.0322	1,463.38	70.1421	1,463.38	74.6951	1,463.38	67.8052	1,463.38	70.8421	1,463.38	66.1062	1,463.38	69.7486	1,463.38	65.6026	1,463.38	71.1617	1,463.38	67.6077	1,463.38	71.1524	1,463.38	61.159	1,463.38	65.6854	1,463.38	67.0248	1,463.38	61.4586	1,463.38	72.3445	1,463.38	72.0735	1,463.38	71.8808	1,463.38	71.2145	1,463.38	70.1915	1,463.38	68.7708	1,463.38	72.2764	1,463.38	70.7483	1,463.38	72.3358
1,516.11	83.1034	1,516.11	82.9294	1,516.11	83.1115	1,516.11	82.3162	1,516.11	82.9198	1,516.11	81.3111	1,516.11	81.4501	1,516.11	79.3954	1,516.11	79.6968	1,516.11	77.4986	1,516.11	76.7752	1,516.11	75.3311	1,516.11	74.8921	1,516.11	74.6781	1,516.11	74.75	1,516.11	73.4239	1,516.11	73.0331	1,516.11	72.2703	1,516.11	71.0676	1,516.11	74.1238	1,516.11	70.459	1,516.11	71.94	1,516.11	70.5095	1,516.11	63.9693	1,516.11	67.343	1,516.11	66.4802	1,516.11	61.6622	1,516.11	72.6656	1,516.11	70.1231	1,516.11	72.4845	1,516.11	70.4121	1,516.11	69.5022	1,516.11	69.4203	1,516.11	69.4222	1,516.11	70.6643	1,516.11	70.8559
1,568.85	81.8075	1,568.85	80.6974	1,568.85	82.6634	1,568.85	81.0223	1,568.85	81.8527	1,568.85	80.5551	1,568.85	80.7814	1,568.85	78.0851	1,568.85	78.5346	1,568.85	76.0434	1,568.85	75.0653	1,568.85	73.2961	1,568.85	74.9775	1,568.85	69.498	1,568.85	73.758	1,568.85	67.9228	1,568.85	72.208	1,568.85	68.4147	1,568.85	68.3269	1,568.85	70.8203	1,568.85	60.775	1,568.85	70.4605	1,568.85	67.3566	1,568.85	67.1091	1,568.85	68.5562	1,568.85	56.5549	1,568.85	67.3139	1,568.85	69.2344	1,568.85	64.717	1,568.85	71.0231	1,568.85	67.9798	1,568.85	65.7663	1,568.85	67.6079	1,568.85	65.7319	1,568.85	70.0346	1,568.85	69.9087
1,624.51	81.2779	1,624.51	80.4166	1,624.51	81.7046	1,624.51	79.0048	1,624.51	81.1172	1,624.51	78.7207	1,624.51	78.8524	1,624.51	77.8848	1,624.51	75.5282	1,624.51	73.5385	1,624.51	73.6185	1,624.51	70.8312	1,624.51	73.4839	1,624.51	69.8421	1,624.51	73.1307	1,624.51	66.3572	1,624.51	73.0048	1,624.51	62.473	1,624.51	70.0472	1,624.51	65.5543	1,624.51	63.6271	1,624.51	71.0845	1,624.51	67.4641	1,624.51	68.8271	1,624.51	68.6641	1,624.51	62.5462	1,624.51	64.5238	1,624.51	68.1449	1,624.51	61.5189	1,624.51	71.032	1,624.51	69.2449	1,624.51	66.673	1,624.51	66.4175	1,624.51	66.4939	1,624.51	69.1376	1,624.51	70.0593
1,681.64	81.3922	1,681.64	81.0851	1,681.64	81.9418	1,681.64	79.1972	1,681.64	80.1733	1,681.64	77.0351	1,681.64	76.5382	1,681.64	77.7187	1,681.64	76.2066	1,681.64	74.4827	1,681.64	71.0876	1,681.64	68.7175	1,681.64	65.3019	1,681.64	60.7184	1,681.64	71.9695	1,681.64	67.2234	1,681.64	74.0755	1,681.64	68.7489	1,681.64	72.825	1,681.64	64.5677	1,681.64	70.499	1,681.64	53.7366	1,681.64	67.8199	1,681.64	65.0737	1,681.64	70.4015	1,681.64	69.3137	1,681.64	56.1107	1,681.64	63.5816	1,681.64	68.4116	1,681.64	66.8072	1,681.64	65.2657	1,681.64	67.5617	1,681.64	64.7974	1,681.64	67.0272	1,681.64	66.4091	1,681.64	66.4466
1,741.7	82.9598	1,741.7	81.1695	1,741.7	82.7189	1,741.7	79.6739	1,741.7	79.7613	1,741.7	76.918	1,741.7	78.5119	1,741.7	74.2135	1,741.7	74.4012	1,741.7	75.0836	1,741.7	72.5912	1,741.7	75.9474	1,741.7	74.8986	1,741.7	70.2541	1,741.7	72.6726	1,741.7	59.6829	1,741.7	72.8455	1,741.7	61.2856	1,741.7	71.6902	1,741.7	57.9733	1,741.7	67.7675	1,741.7	61.9976	1,741.7	68.9323	1,741.7	65.8084	1,741.7	67.323	1,741.7	71.8367	1,741.7	66.7093	1,741.7	68.2567	1,741.7	66.302	1,741.7	59.9085	1,741.7	67.8793	1,741.7	62.3606	1,741.7	68.4909	1,741.7	67.4579	1,741.7	69.0009	1,741.7	64.3794
1,803.22	83.2983	1,803.22	82.4973	1,803.22	82.7028	1,803.22	80.954	1,803.22	80.7391	1,803.22	77.6907	1,803.22	77.6261	1,803.22	74.7061	1,803.22	74.0038	1,803.22	74.8096	1,803.22	74.7426	1,803.22	72.1444	1,803.22	75.0555	1,803.22	71.5617	1,803.22	72.2967	1,803.22	65.6159	1,803.22	73.9716	1,803.22	71.2848	1,803.22	70.3142	1,803.22	67.4815	1,803.22	72.6866	1,803.22	58.3275	1,803.22	71.2225	1,803.22	58.8511	1,803.22	71.2733	1,803.22	69.0036	1,803.22	66.9069	1,803.22	69.9266	1,803.22	69.3172	1,803.22	67.8756	1,803.22	64.2831	1,803.22	64.6024	1,803.22	69.2836	1,803.22	62.9142	1,803.22	71.7935	1,803.22	66.0872
1,866.21	83.3817	1,866.21	82.53	1,866.21	82.4766	1,866.21	80.0862	1,866.21	80.0966	1,866.21	76.212	1,866.21	76.8955	1,866.21	72.8741	1,866.21	72.2057	1,866.21	73.4627	1,866.21	74.8969	1,866.21	71.4706	1,866.21	77.0126	1,866.21	65.4085	1,866.21	73.0432	1,866.21	67.7756	1,866.21	68.8596	1,866.21	65.2543	1,866.21	68.5322	1,866.21	62.8219	1,866.21	68.8771	1,866.21	68.8226	1,866.21	68.2835	1,866.21	63.0845	1,866.21	70.9324	1,866.21	72.7116	1,866.21	68.4702	1,866.21	71.8256	1,866.21	67.3108	1,866.21	64.5561	1,866.21	67.4651	1,866.21	63.9153	1,866.21	62.7128	1,866.21	60.5249	1,866.21	68.2833	1,866.21	65.5235
1,932.13	82.9657	1,932.13	82.1128	1,932.13	82.3073	1,932.13	78.8849	1,932.13	80.4648	1,932.13	75.2517	1,932.13	76.153	1,932.13	74.9497	1,932.13	74.0087	1,932.13	74.4859	1,932.13	76.3007	1,932.13	72.6869	1,932.13	76.0881	1,932.13	74.9837	1,932.13	75.9584	1,932.13	69.9479	1,932.13	73.8958	1,932.13	69.0421	1,932.13	72.3567	1,932.13	70.6784	1,932.13	70.1466	1,932.13	66.7439	1,932.13	67.1303	1,932.13	67.5602	1,932.13	66.8069	1,932.13	67.8069	1,932.13	64.965	1,932.13	71.8497	1,932.13	66.3894	1,932.13	67.1177	1,932.13	66.0831	1,932.13	60.5354	1,932.13	64.7433	1,932.13	61.9354	1,932.13	71.4429	1,932.13	68.3108
1,999.51	83.3415	1,999.51	80.8528	1,999.51	82.437	1,999.51	76.9217	1,999.51	78.9524	1,999.51	76.0214	1,999.51	72.9905	1,999.51	74.9982	1,999.51	74.0184	1,999.51	73.8605	1,999.51	75.3316	1,999.51	75.5469	1,999.51	76.4832	1,999.51	74.6406	1,999.51	76.4762	1,999.51	71.8599	1,999.51	76.076	1,999.51	68.2645	1,999.51	72.4881	1,999.51	66.7372	1,999.51	68.1323	1,999.51	69.9702	1,999.51	63.4698	1,999.51	67.6698	1,999.51	67.8334	1,999.51	67.1954	1,999.51	58.5442	1,999.51	70.9428	1,999.51	65.8539	1,999.51	67.8202	1,999.51	65.5231	1,999.51	56.6964	1,999.51	66.6482	1,999.51	58.3874	1,999.51	71.4067	1,999.51	67.3815
2,069.82	83.9936	2,069.82	80.5083	2,069.82	83.168	2,069.82	76.1782	2,069.82	78.6525	2,069.82	75.6975	2,069.82	72.5197	2,069.82	75.2139	2,069.82	72.4551	2,069.82	75.2227	2,069.82	76.6616	2,069.82	75.4912	2,069.82	77.5428	2,069.82	71.9611	2,069.82	77.0588	2,069.82	70.0612	2,069.82	75.6485	2,069.82	71.2842	2,069.82	74.2765	2,069.82	69.8737	2,069.82	68.4891	2,069.82	63.54	2,069.82	63.4195	2,069.82	71.0632	2,069.82	66.6722	2,069.82	66.4835	2,069.82	57.9895	2,069.82	71.111	2,069.82	62.6884	2,069.82	68.6537	2,069.82	63.7358	2,069.82	55.9142	2,069.82	65.7087	2,069.82	54.5045	2,069.82	71.7791	2,069.82	67.6953
2,143.07	84.0197	2,143.07	81.5363	2,143.07	83.7489	2,143.07	76.2838	2,143.07	79.1266	2,143.07	72.3765	2,143.07	69.7792	2,143.07	74.216	2,143.07	73.112	2,143.07	74.1919	2,143.07	76.7811	2,143.07	74.6684	2,143.07	77.3234	2,143.07	75.8243	2,143.07	76.3285	2,143.07	73.333	2,143.07	76.7558	2,143.07	69.9988	2,143.07	75.4534	2,143.07	72.0917	2,143.07	72.0877	2,143.07	68.0053	2,143.07	67.4334	2,143.07	68.8793	2,143.07	64.3753	2,143.07	70.073	2,143.07	63.9196	2,143.07	68.6574	2,143.07	57.8212	2,143.07	70.1745	2,143.07	64.6978	2,143.07	53.9666	2,143.07	65.9105	2,143.07	59.0907	2,143.07	72.59	2,143.07	68.6623
2,219.24	83.4745	2,219.24	81.1959	2,219.24	83.5843	2,219.24	74.5737	2,219.24	80.0199	2,219.24	66.1885	2,219.24	72.2277	2,219.24	73.5375	2,219.24	74.6405	2,219.24	74.7925	2,219.24	77.6288	2,219.24	76.5945	2,219.24	77.9711	2,219.24	74.8115	2,219.24	76.2429	2,219.24	73.8366	2,219.24	74.408	2,219.24	71.973	2,219.24	73.5004	2,219.24	69.7005	2,219.24	74.1202	2,219.24	70.2498	2,219.24	70.8304	2,219.24	64.6538	2,219.24	66.8487	2,219.24	71.4981	2,219.24	70.3852	2,219.24	69.6162	2,219.24	55.1771	2,219.24	69.592	2,219.24	63.0881	2,219.24	60.5115	2,219.24	65.0938	2,219.24	62.6523	2,219.24	72.444	2,219.24	69.6864
2,296.88	82.2863	2,296.88	80.3863	2,296.88	82.3995	2,296.88	74.4596	2,296.88	78.7664	2,296.88	52.7269	2,296.88	70.4239	2,296.88	73.2087	2,296.88	74.8867	2,296.88	78.6459	2,296.88	77.8189	2,296.88	77.9879	2,296.88	78.8673	2,296.88	78.1473	2,296.88	74.6415	2,296.88	76.451	2,296.88	67.8547	2,296.88	71.3897	2,296.88	69.7276	2,296.88	71.4679	2,296.88	72.08	2,296.88	69.0881	2,296.88	73.0856	2,296.88	65.8066	2,296.88	68.923	2,296.88	71.5379	2,296.88	72.2958	2,296.88	71.517	2,296.88	64.0309	2,296.88	68.5053	2,296.88	62.7376	2,296.88	57.6617	2,296.88	62.2104	2,296.88	61.8871	2,296.88	70.6631	2,296.88	66.7575
2,378.91	82.378	2,378.91	78.9893	2,378.91	81.7917	2,378.91	70.4314	2,378.91	77.1512	2,378.91	56.6555	2,378.91	64.9955	2,378.91	75.7889	2,378.91	74.9363	2,378.91	78.8259	2,378.91	78.4692	2,378.91	78.8246	2,378.91	78.7641	2,378.91	76.244	2,378.91	77.5066	2,378.91	73.2231	2,378.91	74.7224	2,378.91	73.6971	2,378.91	73.3976	2,378.91	68.0762	2,378.91	70.8885	2,378.91	72.1696	2,378.91	67.9678	2,378.91	67.6243	2,378.91	68.3365	2,378.91	70.2767	2,378.91	72.0487	2,378.91	71.3634	2,378.91	65.9398	2,378.91	68.9402	2,378.91	64.3586	2,378.91	57.8883	2,378.91	55.173	2,378.91	63.7665	2,378.91	70.4082	2,378.91	68.7702
2,462.4	83.6099	2,462.4	80.6024	2,462.4	82.556	2,462.4	72.5484	2,462.4	76.8947	2,462.4	67.4976	2,462.4	66.5785	2,462.4	77.0815	2,462.4	75.4362	2,462.4	78.7161	2,462.4	78.6155	2,462.4	77.2052	2,462.4	79.3758	2,462.4	76.8233	2,462.4	78.4048	2,462.4	76.3665	2,462.4	74.7183	2,462.4	69.6384	2,462.4	74.5494	2,462.4	70.8929	2,462.4	70.7956	2,462.4	69.6791	2,462.4	69.292	2,462.4	69.7165	2,462.4	65.6067	2,462.4	68.101	2,462.4	71.9133	2,462.4	72.1233	2,462.4	67.0079	2,462.4	69.2574	2,462.4	63.2754	2,462.4	62.3212	2,462.4	55.3416	2,462.4	64.3388	2,462.4	71.0383	2,462.4	69.3153
2,548.83	83.811	2,548.83	81.5635	2,548.83	83.4334	2,548.83	72.3624	2,548.83	77.168	2,548.83	73.3918	2,548.83	65.8258	2,548.83	78.049	2,548.83	75.9597	2,548.83	78.9512	2,548.83	78.1539	2,548.83	78.0673	2,548.83	78.4663	2,548.83	77.4329	2,548.83	74.6347	2,548.83	75.1499	2,548.83	74.2322	2,548.83	74.1634	2,548.83	76.3221	2,548.83	69.5645	2,548.83	68.5674	2,548.83	69.642	2,548.83	69.1702	2,548.83	69.8808	2,548.83	68.64	2,548.83	67.4133	2,548.83	71.6096	2,548.83	71.6375	2,548.83	69.5307	2,548.83	69.1243	2,548.83	63.5827	2,548.83	63.5856	2,548.83	58.3159	2,548.83	63.2046	2,548.83	71.486	2,548.83	69.1474
2,639.65	82.4664	2,639.65	80.9042	2,639.65	82.3406	2,639.65	73.4734	2,639.65	77.6925	2,639.65	75.8865	2,639.65	62.7006	2,639.65	78.4038	2,639.65	77.2195	2,639.65	80.5251	2,639.65	79.3999	2,639.65	80.1427	2,639.65	78.5001	2,639.65	78.5319	2,639.65	75.8385	2,639.65	76.0592	2,639.65	74.5991	2,639.65	71.6786	2,639.65	76.0765	2,639.65	69.7078	2,639.65	67.9785	2,639.65	68.8604	2,639.65	53.8444	2,639.65	66.9526	2,639.65	65.9145	2,639.65	69.4352	2,639.65	69.6571	2,639.65	71.2799	2,639.65	68.562	2,639.65	69.7001	2,639.65	63.6951	2,639.65	62.7509	2,639.65	60.1222	2,639.65	65.1291	2,639.65	71.4586	2,639.65	68.9456
2,731.93	81.7868	2,731.93	79.0166	2,731.93	80.5477	2,731.93	75.7343	2,731.93	77.3133	2,731.93	74.9134	2,731.93	62.2153	2,731.93	80.2157	2,731.93	78.1416	2,731.93	80.9116	2,731.93	80.9031	2,731.93	80.532	2,731.93	80.0358	2,731.93	75.7708	2,731.93	76.3708	2,731.93	74.9575	2,731.93	70.963	2,731.93	72.715	2,731.93	72.1211	2,731.93	69.8079	2,731.93	65.1106	2,731.93	68.9416	2,731.93	62.8188	2,731.93	69.4079	2,731.93	64.3792	2,731.93	68.3809	2,731.93	68.3219	2,731.93	71.0413	2,731.93	68.6219	2,731.93	69.6223	2,731.93	57.7915	2,731.93	63.3763	2,731.93	59.1377	2,731.93	61.1924	2,731.93	70.0875	2,731.93	65.7938
2,828.61	81.5853	2,828.61	79.7437	2,828.61	79.9993	2,828.61	76.1776	2,828.61	76.0142	2,828.61	75.9936	2,828.61	69.6077	2,828.61	80.9954	2,828.61	79.4368	2,828.61	81.5684	2,828.61	81.7496	2,828.61	79.6938	2,828.61	79.7441	2,828.61	77.511	2,828.61	77.7234	2,828.61	74.7317	2,828.61	75.3368	2,828.61	73.5948	2,828.61	69.7534	2,828.61	69.1846	2,828.61	67.4973	2,828.61	69.7189	2,828.61	58.0736	2,828.61	67.7941	2,828.61	67.6952	2,828.61	67.5424	2,828.61	66.3374	2,828.61	69.9911	2,828.61	68.3381	2,828.61	67.9122	2,828.61	61.4475	2,828.61	60.9083	2,828.61	62.03	2,828.61	64.6664	2,828.61	69.7625	2,828.61	68.026
2,928.22	81.709	2,928.22	81.5316	2,928.22	80.2362	2,928.22	76.395	2,928.22	74.8858	2,928.22	78.0876	2,928.22	72.8465	2,928.22	81.2689	2,928.22	79.6245	2,928.22	81.3627	2,928.22	81.9477	2,928.22	78.9725	2,928.22	80.3971	2,928.22	78.3159	2,928.22	78.1852	2,928.22	75.3498	2,928.22	73.983	2,928.22	71.3462	2,928.22	60.8245	2,928.22	68.6524	2,928.22	73.722	2,928.22	65.837	2,928.22	69.8019	2,928.22	68.1886	2,928.22	65.4549	2,928.22	67.03	2,928.22	61.1515	2,928.22	70.5257	2,928.22	66.7194	2,928.22	69.1204	2,928.22	61.5139	2,928.22	65.1277	2,928.22	62.2838	2,928.22	64.0279	2,928.22	70.2052	2,928.22	68.8738
3,030.76	81.9673	3,030.76	82.1644	3,030.76	79.5484	3,030.76	76.8892	3,030.76	74.5821	3,030.76	79.7155	3,030.76	72.5873	3,030.76	81.6935	3,030.76	80.0508	3,030.76	81.3337	3,030.76	82.4847	3,030.76	80.183	3,030.76	80.9965	3,030.76	78.6548	3,030.76	78.8194	3,030.76	73.8169	3,030.76	72.5882	3,030.76	73.4998	3,030.76	71.3077	3,030.76	70.5494	3,030.76	75.246	3,030.76	70.1992	3,030.76	64.9787	3,030.76	68.2067	3,030.76	61.0778	3,030.76	69.0412	3,030.76	66.6643	3,030.76	70.0467	3,030.76	66.6847	3,030.76	69.6179	3,030.76	58.717	3,030.76	65.5387	3,030.76	63.5078	3,030.76	65.2217	3,030.76	70.6778	3,030.76	69.3708
3,137.7	82.4945	3,137.7	82.3701	3,137.7	79.4599	3,137.7	78.7468	3,137.7	75.9013	3,137.7	80.9184	3,137.7	74.22	3,137.7	82.7088	3,137.7	80.2731	3,137.7	82.1433	3,137.7	82.4307	3,137.7	80.337	3,137.7	80.1079	3,137.7	77.0265	3,137.7	78.4242	3,137.7	77.2486	3,137.7	69.9663	3,137.7	74.2661	3,137.7	73.9172	3,137.7	70.1242	3,137.7	74.2599	3,137.7	68.6878	3,137.7	64.7618	3,137.7	67.7626	3,137.7	55.4617	3,137.7	68.8346	3,137.7	65.5776	3,137.7	69.5358	3,137.7	64.9838	3,137.7	69.8053	3,137.7	44.5298	3,137.7	64.2551	3,137.7	63.2703	3,137.7	64.8021	3,137.7	70.1702	3,137.7	70.295
3,249.02	82.8155	3,249.02	81.6154	3,249.02	78.8821	3,249.02	78.6412	3,249.02	76.5761	3,249.02	81.5524	3,249.02	78.6304	3,249.02	82.9004	3,249.02	79.9153	3,249.02	82.1996	3,249.02	81.1897	3,249.02	81.4151	3,249.02	79.8106	3,249.02	79.1714	3,249.02	79.2826	3,249.02	76.8674	3,249.02	75.811	3,249.02	70.213	3,249.02	75.2136	3,249.02	70.0573	3,249.02	68.5333	3,249.02	67.6469	3,249.02	64.7302	3,249.02	68.7576	3,249.02	61.9542	3,249.02	66.289	3,249.02	67.6401	3,249.02	70.6664	3,249.02	64.2881	3,249.02	70.1043	3,249.02	54.7469	3,249.02	66.2265	3,249.02	63.6996	3,249.02	62.5946	3,249.02	69.7743	3,249.02	68.9884
3,363.28	83.5039	3,363.28	81.2776	3,363.28	79.4329	3,363.28	79.5235	3,363.28	76.6799	3,363.28	80.5725	3,363.28	80.3885	3,363.28	82.5357	3,363.28	80.7243	3,363.28	82.4669	3,363.28	80.9083	3,363.28	80.3944	3,363.28	81.3031	3,363.28	77.7067	3,363.28	80.063	3,363.28	72.9318	3,363.28	77.7519	3,363.28	72.9425	3,363.28	76.7228	3,363.28	69.4725	3,363.28	65.9771	3,363.28	66.9884	3,363.28	57.4408	3,363.28	67.5638	3,363.28	65.4686	3,363.28	65.8554	3,363.28	66.5321	3,363.28	68.3428	3,363.28	65.0058	3,363.28	68.0005	3,363.28	61.4692	3,363.28	63.1714	3,363.28	64.3084	3,363.28	63.1025	3,363.28	68.2543	3,363.28	66.3218
3,481.93	83.752	3,481.93	81.675	3,481.93	81.1943	3,481.93	80.2152	3,481.93	75.29	3,481.93	80.8492	3,481.93	81.2377	3,481.93	83.3107	3,481.93	80.7833	3,481.93	82.3795	3,481.93	79.4717	3,481.93	79.5086	3,481.93	82.5076	3,481.93	74.9138	3,481.93	79.066	3,481.93	75.2004	3,481.93	78.7491	3,481.93	69.1216	3,481.93	75.2559	3,481.93	67.1425	3,481.93	56.683	3,481.93	65.0133	3,481.93	56.5589	3,481.93	66.6812	3,481.93	65.6576	3,481.93	64.6495	3,481.93	64.1224	3,481.93	67.4183	3,481.93	67.2259	3,481.93	66.5868	3,481.93	63.5446	3,481.93	58.8262	3,481.93	65.3504	3,481.93	63.9916	3,481.93	67.3892	3,481.93	68.2881
3,604.98	83.5136	3,604.98	81.7332	3,604.98	81.8891	3,604.98	80.381	3,604.98	75.399	3,604.98	82.0472	3,604.98	81.9501	3,604.98	82.8623	3,604.98	80.5862	3,604.98	81.9731	3,604.98	80.3949	3,604.98	77.4798	3,604.98	82.89	3,604.98	76.5001	3,604.98	79.6572	3,604.98	72.2878	3,604.98	77.7663	3,604.98	70.4157	3,604.98	70.1977	3,604.98	68.963	3,604.98	59.5512	3,604.98	66.5635	3,604.98	58.4812	3,604.98	66.7145	3,604.98	65.2949	3,604.98	64.5978	3,604.98	63.6091	3,604.98	65.7812	3,604.98	66.7233	3,604.98	67.172	3,604.98	64.9122	3,604.98	62.0404	3,604.98	65.6959	3,604.98	63.4872	3,604.98	67.2013	3,604.98	69.4834
3,732.42	84.2368	3,732.42	82.0762	3,732.42	82.8044	3,732.42	80.104	3,732.42	75.0048	3,732.42	83.2086	3,732.42	81.8139	3,732.42	83.5871	3,732.42	81.327	3,732.42	80.6249	3,732.42	80.6741	3,732.42	77.5758	3,732.42	82.2418	3,732.42	74.4236	3,732.42	78.572	3,732.42	74.4136	3,732.42	76.8547	3,732.42	70.8675	3,732.42	69.9487	3,732.42	66.3261	3,732.42	66.1084	3,732.42	66.474	3,732.42	67.4398	3,732.42	63.4784	3,732.42	63.4994	3,732.42	66.2217	3,732.42	63.4152	3,732.42	64.647	3,732.42	66.8996	3,732.42	66.043	3,732.42	63.2945	3,732.42	61.8451	3,732.42	62.967	3,732.42	60.3567	3,732.42	67.2374	3,732.42	68.6119
3,864.26	83.7081	3,864.26	82.8667	3,864.26	84.0775	3,864.26	79.7893	3,864.26	78.47	3,864.26	83.438	3,864.26	82.0686	3,864.26	82.6929	3,864.26	81.7814	3,864.26	79.9344	3,864.26	81.3172	3,864.26	78.1131	3,864.26	81.4893	3,864.26	76.6102	3,864.26	78.6732	3,864.26	75.5689	3,864.26	74.9605	3,864.26	70.2581	3,864.26	74.1897	3,864.26	69.6755	3,864.26	66.6626	3,864.26	66.5514	3,864.26	70.2727	3,864.26	68.6264	3,864.26	61.7638	3,864.26	66.598	3,864.26	64.8033	3,864.26	65.4434	3,864.26	65.3202	3,864.26	65.8582	3,864.26	63.8493	3,864.26	61.2163	3,864.26	63.7766	3,864.26	55.9072	3,864.26	68.1937	3,864.26	68.2659
4,000.49	83.2703	4,000.49	82.1338	4,000.49	82.6506	4,000.49	80.6198	4,000.49	80.1965	4,000.49	83.0857	4,000.49	82.7186	4,000.49	82.1299	4,000.49	82.9483	4,000.49	79.5149	4,000.49	80.8703	4,000.49	77.335	4,000.49	82.3369	4,000.49	76.2875	4,000.49	78.8676	4,000.49	71.593	4,000.49	72.3698	4,000.49	72.8538	4,000.49	70.6731	4,000.49	68.5746	4,000.49	71.1495	4,000.49	65.9212	4,000.49	68.6526	4,000.49	67.8986	4,000.49	63.0346	4,000.49	65.2022	4,000.49	66.2607	4,000.49	64.9668	4,000.49	62.4942	4,000.49	64.4161	4,000.49	65.7546	4,000.49	60.6977	4,000.49	64.3363	4,000.49	59.4076	4,000.49	66.9428	4,000.49	66.2797
4,141.11	84.8709	4,141.11	80.4366	4,141.11	83.4595	4,141.11	82.5546	4,141.11	80.1616	4,141.11	84.6987	4,141.11	83.0955	4,141.11	82.0064	4,141.11	81.952	4,141.11	80.1557	4,141.11	79.9317	4,141.11	78.6907	4,141.11	82.0018	4,141.11	75.7157	4,141.11	74.9951	4,141.11	77.1414	4,141.11	72.1146	4,141.11	72.0132	4,141.11	75.4155	4,141.11	69.6866	4,141.11	70.9493	4,141.11	66.4448	4,141.11	64.0874	4,141.11	67.4312	4,141.11	68.3037	4,141.11	67.088	4,141.11	62.3433	4,141.11	67.4613	4,141.11	61.4121	4,141.11	64.8118	4,141.11	66.0592	4,141.11	55.953	4,141.11	64.9305	4,141.11	58.5036	4,141.11	66.0871	4,141.11	67.6271
4,287.6	84.9124	4,287.6	82.105	4,287.6	83.8663	4,287.6	84.0833	4,287.6	80.9932	4,287.6	82.2727	4,287.6	83.633	4,287.6	80.6592	4,287.6	83.1884	4,287.6	80.0875	4,287.6	79.289	4,287.6	77.1641	4,287.6	80.8902	4,287.6	78.1182	4,287.6	76.4843	4,287.6	72.9652	4,287.6	76.4552	4,287.6	72.8822	4,287.6	75.9142	4,287.6	66.9888	4,287.6	66.8657	4,287.6	66.0799	4,287.6	60.3691	4,287.6	66.2598	4,287.6	67.0991	4,287.6	67.6381	4,287.6	69.167	4,287.6	67.8285	4,287.6	65.5243	4,287.6	63.5224	4,287.6	67.0697	4,287.6	63.6308	4,287.6	64.3758	4,287.6	58.7991	4,287.6	66.5507	4,287.6	68.8745
4,438.48	84.0806	4,438.48	81.8438	4,438.48	84.2982	4,438.48	83.8428	4,438.48	81.4423	4,438.48	82.5707	4,438.48	82.7908	4,438.48	82.4483	4,438.48	83.251	4,438.48	80.1228	4,438.48	77.0007	4,438.48	79.046	4,438.48	76.4087	4,438.48	76.0028	4,438.48	78.2134	4,438.48	75.918	4,438.48	79.7009	4,438.48	72.5003	4,438.48	72.7383	4,438.48	69.2814	4,438.48	69.3495	4,438.48	68.2588	4,438.48	61.4319	4,438.48	66.678	4,438.48	69.1586	4,438.48	67.1083	4,438.48	72.5261	4,438.48	65.0742	4,438.48	66.8636	4,438.48	65.1482	4,438.48	68.3605	4,438.48	59.3403	4,438.48	63.4347	4,438.48	56.5108	4,438.48	68.4313	4,438.48	65.631
4,595.21	84.2297	4,595.21	82.0046	4,595.21	85.0119	4,595.21	82.6134	4,595.21	82.9149	4,595.21	83.0257	4,595.21	82.927	4,595.21	80.864	4,595.21	83.2828	4,595.21	80.9287	4,595.21	73.3352	4,595.21	77.4243	4,595.21	76.0445	4,595.21	78.4736	4,595.21	81.6546	4,595.21	73.3869	4,595.21	80.9001	4,595.21	73.0237	4,595.21	74.7072	4,595.21	69.6676	4,595.21	71.0935	4,595.21	67.4821	4,595.21	56.2495	4,595.21	65.4835	4,595.21	68.1015	4,595.21	67.7587	4,595.21	71.0153	4,595.21	67.4232	4,595.21	64.9069	4,595.21	64.7445	4,595.21	66.8396	4,595.21	60.9574	4,595.21	57.8313	4,595.21	51.1092	4,595.21	68.5438	4,595.21	66.0215
4,756.35	84.8696	4,756.35	84.4122	4,756.35	84.5078	4,756.35	84.781	4,756.35	82.9925	4,756.35	81.766	4,756.35	83.6624	4,756.35	82.5009	4,756.35	81.9946	4,756.35	80.5301	4,756.35	73.5084	4,756.35	79.1407	4,756.35	79.975	4,756.35	75.4654	4,756.35	82.1728	4,756.35	76.3939	4,756.35	78.4918	4,756.35	69.9125	4,756.35	69.9234	4,756.35	67.8153	4,756.35	64.3305	4,756.35	64.7228	4,756.35	62.2376	4,756.35	66.6955	4,756.35	67.412	4,756.35	68.201	4,756.35	67.2484	4,756.35	66.7819	4,756.35	59.2917	4,756.35	65.4968	4,756.35	66.2905	4,756.35	64.273	4,756.35	62.0722	4,756.35	62.4594	4,756.35	65.5553	4,756.35	67.8917
4,924.8	84.7921	4,924.8	83.9691	4,924.8	85.6142	4,924.8	82.9085	4,924.8	82.4842	4,924.8	83.8787	4,924.8	83.0854	4,924.8	81.6786	4,924.8	82.2021	4,924.8	80.5506	4,924.8	74.5909	4,924.8	78.3472	4,924.8	81.9099	4,924.8	78.704	4,924.8	81.5905	4,924.8	72.5569	4,924.8	74.3944	4,924.8	73.8167	4,924.8	73.5797	4,924.8	68.3072	4,924.8	67.743	4,924.8	67.5143	4,924.8	61.5062	4,924.8	67.4075	4,924.8	63.838	4,924.8	68.1112	4,924.8	66.6184	4,924.8	66.4029	4,924.8	61.1846	4,924.8	65.2102	4,924.8	66.8579	4,924.8	63.378	4,924.8	62.247	4,924.8	59.6676	4,924.8	65.7228	4,924.8	64.2816
5,097.66	84.6557	5,097.66	84.3984	5,097.66	85.4713	5,097.66	83.7218	5,097.66	84.5189	5,097.66	83.1769	5,097.66	80.7617	5,097.66	81.5852	5,097.66	81.5798	5,097.66	81.1361	5,097.66	77.3207	5,097.66	80.0066	5,097.66	81.4896	5,097.66	77.3648	5,097.66	79.956	5,097.66	76.4995	5,097.66	74.3064	5,097.66	71.6693	5,097.66	71.0716	5,097.66	67.9755	5,097.66	69.4021	5,097.66	67.7043	5,097.66	64.4465	5,097.66	65.4465	5,097.66	59.4758	5,097.66	68.659	5,097.66	66.2285	5,097.66	67.2193	5,097.66	61.9883	5,097.66	66.4662	5,097.66	65.1064	5,097.66	63.4576	5,097.66	57.8923	5,097.66	53.5852	5,097.66	66.173	5,097.66	66.7708
5,277.83	85.1534	5,277.83	84.4837	5,277.83	85.1702	5,277.83	83.935	5,277.83	83.9439	5,277.83	83.5188	5,277.83	79.9482	5,277.83	82.3396	5,277.83	80.9184	5,277.83	81.524	5,277.83	79.8399	5,277.83	79.438	5,277.83	79.6166	5,277.83	78.3423	5,277.83	78.4448	5,277.83	72.6733	5,277.83	75.6702	5,277.83	71.8483	5,277.83	73.0798	5,277.83	65.1683	5,277.83	65.5658	5,277.83	65.3737	5,277.83	59.1007	5,277.83	65.78	5,277.83	61.92	5,277.83	68.0724	5,277.83	61.3652	5,277.83	66.3869	5,277.83	65.1667	5,277.83	66.0131	5,277.83	64.6687	5,277.83	64.1308	5,277.83	54.2261	5,277.83	43.3423	5,277.83	65.1805	5,277.83	61.3202
5,463.87	85.3057	5,463.87	84.4914	5,463.87	84.878	5,463.87	83.7981	5,463.87	84.4199	5,463.87	83.1556	5,463.87	82.9478	5,463.87	81.8015	5,463.87	82.9966	5,463.87	82.1577	5,463.87	80.984	5,463.87	79.7249	5,463.87	76.8894	5,463.87	77.2355	5,463.87	76.9873	5,463.87	75.7483	5,463.87	74.2068	5,463.87	71.9459	5,463.87	73.9506	5,463.87	67.786	5,463.87	69.5511	5,463.87	64.902	5,463.87	62.1252	5,463.87	65.7114	5,463.87	58.0587	5,463.87	64.5873	5,463.87	48.945	5,463.87	65.4459	5,463.87	60.5743	5,463.87	67.7884	5,463.87	65.3689	5,463.87	63.6864	5,463.87	53.1584	5,463.87	43.0292	5,463.87	64.733	5,463.87	61.8319
5,657.23	85.2438	5,657.23	83.5711	5,657.23	83.9931	5,657.23	84.0671	5,657.23	85.2464	5,657.23	82.9392	5,657.23	83.1692	5,657.23	83.4604	5,657.23	83.689	5,657.23	81.84	5,657.23	80.6254	5,657.23	79.9348	5,657.23	75.2815	5,657.23	77.2259	5,657.23	78.2806	5,657.23	73.0518	5,657.23	74.7806	5,657.23	70.5746	5,657.23	71.4765	5,657.23	67.3366	5,657.23	67.8088	5,657.23	63.6452	5,657.23	65.709	5,657.23	65.0561	5,657.23	56.4004	5,657.23	66.7831	5,657.23	60.0485	5,657.23	66.4171	5,657.23	57.5264	5,657.23	65.7815	5,657.23	65.6502	5,657.23	64.1127	5,657.23	60.5654	5,657.23	61.2801	5,657.23	65.9314	5,657.23	61.3299
5,856.45	85.2213	5,856.45	83.9225	5,856.45	84.0475	5,856.45	83.775	5,856.45	85.421	5,856.45	82.6635	5,856.45	83.033	5,856.45	82.9911	5,856.45	83.685	5,856.45	82.3335	5,856.45	80.5379	5,856.45	78.9606	5,856.45	75.9185	5,856.45	77.8812	5,856.45	78.3876	5,856.45	74.9316	5,856.45	76.2973	5,856.45	70.8269	5,856.45	69.8719	5,856.45	67.0644	5,856.45	54.9067	5,856.45	66.5584	5,856.45	65.0099	5,856.45	64.2356	5,856.45	51.5823	5,856.45	67.0317	5,856.45	59.4505	5,856.45	66.2836	5,856.45	42.6799	5,856.45	66.6434	5,856.45	64.1291	5,856.45	64.9636	5,856.45	56.5411	5,856.45	57.4799	5,856.45	64.2361	5,856.45	60.1168
6,062.99	84.8287	6,062.99	83.7412	6,062.99	83.2794	6,062.99	83.6307	6,062.99	82.1045	6,062.99	83.9115	6,062.99	82.6493	6,062.99	82.8355	6,062.99	82.4303	6,062.99	82.2807	6,062.99	80.6259	6,062.99	79.7164	6,062.99	75.4028	6,062.99	76.8633	6,062.99	78.4349	6,062.99	74.8979	6,062.99	77.6685	6,062.99	71.7192	6,062.99	73.2814	6,062.99	65.9494	6,062.99	63.0254	6,062.99	63.262	6,062.99	62.888	6,062.99	64.1353	6,062.99	59.332	6,062.99	67.2641	6,062.99	59.1002	6,062.99	65.4654	6,062.99	61.3803	6,062.99	63.7947	6,062.99	62.9558	6,062.99	67.0861	6,062.99	47.6155	6,062.99	57.808	6,062.99	57.3739	6,062.99	60.6831
6,276.86	83.3008	6,276.86	83.6537	6,276.86	84.1512	6,276.86	83.3328	6,276.86	84.0163	6,276.86	83.7623	6,276.86	79.7178	6,276.86	83.0785	6,276.86	81.7183	6,276.86	81.3109	6,276.86	78.8302	6,276.86	79.4694	6,276.86	75.1097	6,276.86	76.6267	6,276.86	78.244	6,276.86	72.3214	6,276.86	77.6517	6,276.86	69.2555	6,276.86	71.963	6,276.86	62.9158	6,276.86	61.1439	6,276.86	62.714	6,276.86	55.6056	6,276.86	62.0103	6,276.86	61.2604	6,276.86	66.5606	6,276.86	52.9731	6,276.86	65.2859	6,276.86	56.9425	6,276.86	62.6288	6,276.86	62.9862	6,276.86	67.2274	6,276.86	57.5931	6,276.86	55.7526	6,276.86	58.5186	6,276.86	60.3688
6,498.05	83.2886	6,498.05	83.138	6,498.05	83.6053	6,498.05	82.8716	6,498.05	85.1063	6,498.05	83.4358	6,498.05	80.7572	6,498.05	82.7766	6,498.05	80.9295	6,498.05	81.1874	6,498.05	79.9974	6,498.05	78.6853	6,498.05	73.1541	6,498.05	74.5402	6,498.05	78.3412	6,498.05	72.1231	6,498.05	74.787	6,498.05	69.4111	6,498.05	72.04	6,498.05	64.9681	6,498.05	66.0067	6,498.05	63.2759	6,498.05	61.7879	6,498.05	64.1838	6,498.05	55.5138	6,498.05	65.2595	6,498.05	59.113	6,498.05	64.9591	6,498.05	56.7868	6,498.05	64.7846	6,498.05	60.6336	6,498.05	65.6909	6,498.05	58.824	6,498.05	59.0348	6,498.05	59.0852	6,498.05	56.716
6,726.56	83.1984	6,726.56	82.7286	6,726.56	82.1033	6,726.56	82.9749	6,726.56	83.6918	6,726.56	83.2488	6,726.56	82.3781	6,726.56	82.3387	6,726.56	81.2935	6,726.56	81.0537	6,726.56	80.1855	6,726.56	78.3342	6,726.56	74.8654	6,726.56	75.9185	6,726.56	76.7216	6,726.56	72.7877	6,726.56	67.9724	6,726.56	71.3222	6,726.56	70.5203	6,726.56	63.7482	6,726.56	66.8609	6,726.56	60.2196	6,726.56	67.1546	6,726.56	61.7484	6,726.56	55.2168	6,726.56	65.2728	6,726.56	58.1509	6,726.56	66.0368	6,726.56	57.0046	6,726.56	64.3252	6,726.56	59.795	6,726.56	64.6255	6,726.56	56.4307	6,726.56	62.5995	6,726.56	58.3367	6,726.56	55.5719
6,963.87	82.7648	6,963.87	82.2788	6,963.87	81.0002	6,963.87	82.7083	6,963.87	80.4747	6,963.87	82.5053	6,963.87	83.3822	6,963.87	82.207	6,963.87	80.8098	6,963.87	80.7649	6,963.87	80.9583	6,963.87	78.4666	6,963.87	75.6158	6,963.87	76.0958	6,963.87	71.456	6,963.87	71.8077	6,963.87	70.9128	6,963.87	69.3795	6,963.87	68.1285	6,963.87	62.6496	6,963.87	62.4913	6,963.87	60.6784	6,963.87	66.8138	6,963.87	61.3523	6,963.87	53.4456	6,963.87	65.2572	6,963.87	58.5061	6,963.87	66.1726	6,963.87	58.1233	6,963.87	63.9178	6,963.87	60.3833	6,963.87	64.3236	6,963.87	52.7385	6,963.87	63.8094	6,963.87	58.783	6,963.87	49.4858
7,209.96	82.4768	7,209.96	81.865	7,209.96	82.4812	7,209.96	82.5725	7,209.96	81.9874	7,209.96	81.8662	7,209.96	82.0035	7,209.96	82.0853	7,209.96	81.474	7,209.96	79.8744	7,209.96	81.3041	7,209.96	78.3585	7,209.96	75.734	7,209.96	75.3242	7,209.96	73.076	7,209.96	71.1204	7,209.96	75.2961	7,209.96	68.9385	7,209.96	66.9002	7,209.96	61.069	7,209.96	58.283	7,209.96	60.7333	7,209.96	64.3818	7,209.96	61.8112	7,209.96	56.2934	7,209.96	65.032	7,209.96	59.0254	7,209.96	64.4678	7,209.96	59.6563	7,209.96	62.419	7,209.96	58.1591	7,209.96	66.8721	7,209.96	57.6286	7,209.96	63.9706	7,209.96	59.3227	7,209.96	51.7346
7,464.84	82.0004	7,464.84	82.1142	7,464.84	82.1241	7,464.84	82.3061	7,464.84	82.5303	7,464.84	81.0926	7,464.84	80.1464	7,464.84	81.7356	7,464.84	81.4103	7,464.84	79.1261	7,464.84	80.9028	7,464.84	78.0271	7,464.84	74.9295	7,464.84	74.6637	7,464.84	73.9411	7,464.84	72.1782	7,464.84	76.0596	7,464.84	68.75	7,464.84	67.9976	7,464.84	65.1619	7,464.84	60.7009	7,464.84	60.0036	7,464.84	57.0203	7,464.84	58.7466	7,464.84	49.8109	7,464.84	64.6216	7,464.84	44.7134	7,464.84	64.2947	7,464.84	63.6743	7,464.84	64.3864	7,464.84	57.6822	7,464.84	65.6444	7,464.84	55.0234	7,464.84	64.3142	7,464.84	52.9571	7,464.84	51.0435
7,727.05	82.577	7,727.05	81.6316	7,727.05	81.0915	7,727.05	82.0795	7,727.05	82.4363	7,727.05	80.747	7,727.05	80.301	7,727.05	80.3941	7,727.05	80.1637	7,727.05	79.3711	7,727.05	80.9619	7,727.05	77.1672	7,727.05	74.2816	7,727.05	75.062	7,727.05	76.627	7,727.05	71.502	7,727.05	74.4888	7,727.05	66.9305	7,727.05	69.6551	7,727.05	63.0165	7,727.05	61.485	7,727.05	57.5281	7,727.05	59.4443	7,727.05	60.4812	7,727.05	51.0569	7,727.05	64.4152	7,727.05	49.9492	7,727.05	61.7576	7,727.05	64.334	7,727.05	62.9727	7,727.05	57.1321	7,727.05	66.4627	7,727.05	57.3587	7,727.05	61.7439	7,727.05	54.0859	7,727.05	49.5748
7,999.51	83.0942	7,999.51	83.3843	7,999.51	82.7536	7,999.51	82.3396	7,999.51	83.0323	7,999.51	80.9676	7,999.51	81.9114	7,999.51	79.863	7,999.51	79.1667	7,999.51	78.8166	7,999.51	80.497	7,999.51	77.2466	7,999.51	76.797	7,999.51	73.9746	7,999.51	73.7493	7,999.51	70.8131	7,999.51	72.6788	7,999.51	65.9763	7,999.51	63.3604	7,999.51	63.7319	7,999.51	61.1789	7,999.51	55.1165	7,999.51	66.1486	7,999.51	55.1033	7,999.51	53.8466	7,999.51	63.0802	7,999.51	54.606	7,999.51	61.3839	7,999.51	62.0684	7,999.51	62.7665	7,999.51	55.2155	7,999.51	65.4806	7,999.51	57.2828	7,999.51	62.7284	7,999.51	57.3581	7,999.51	45.8874
8,282.23	83.3714	8,282.23	82.9681	8,282.23	82.5	8,282.23	82.9316	8,282.23	83.3851	8,282.23	79.8725	8,282.23	82.1825	8,282.23	79.5919	8,282.23	79.3297	8,282.23	78.5039	8,282.23	77.1544	8,282.23	76.0956	8,282.23	78.6904	8,282.23	73.6766	8,282.23	63.7973	8,282.23	69.9532	8,282.23	73.7731	8,282.23	67.2187	8,282.23	58.515	8,282.23	59.8577	8,282.23	61.2758	8,282.23	52.4095	8,282.23	67.1501	8,282.23	60.4789	8,282.23	56.3279	8,282.23	64.4387	8,282.23	43.9156	8,282.23	60.9194	8,282.23	54.4051	8,282.23	58.3623	8,282.23	44.3057	8,282.23	63.4506	8,282.23	59.592	8,282.23	62.6539	8,282.23	50.4294	8,282.23	47.423
8,573.73	84.4249	8,573.73	83.5989	8,573.73	83.9971	8,573.73	82.9963	8,573.73	82.7514	8,573.73	79.6241	8,573.73	80.2714	8,573.73	79.3921	8,573.73	79.6743	8,573.73	77.9226	8,573.73	76.8712	8,573.73	75.5867	8,573.73	76.959	8,573.73	72.7645	8,573.73	70.0759	8,573.73	68.4255	8,573.73	74.9982	8,573.73	64.4685	8,573.73	65.3662	8,573.73	59.6292	8,573.73	58.5909	8,573.73	50.6949	8,573.73	65.3335	8,573.73	55.9708	8,573.73	44.709	8,573.73	59.1523	8,573.73	34.6601	8,573.73	58.8385	8,573.73	53.709	8,573.73	56.7667	8,573.73	52.8695	8,573.73	63.0104	8,573.73	55.7715	8,573.73	59.4391	8,573.73	51.7542	8,573.73	48.9526
8,876.95	83.7966	8,876.95	83.9601	8,876.95	83.4834	8,876.95	83.2245	8,876.95	83.678	8,876.95	80.0005	8,876.95	79.7615	8,876.95	78.9998	8,876.95	80.4972	8,876.95	78.0054	8,876.95	78.2103	8,876.95	74.6628	8,876.95	75.3963	8,876.95	71.6052	8,876.95	73.8104	8,876.95	67.986	8,876.95	71.7996	8,876.95	62.3164	8,876.95	65.6348	8,876.95	57.7618	8,876.95	61.4436	8,876.95	51.7404	8,876.95	63.6254	8,876.95	57.2158	8,876.95	40.2986	8,876.95	58.1576	8,876.95	42.8638	8,876.95	54.4639	8,876.95	51.9949	8,876.95	54.6201	8,876.95	48.7869	8,876.95	60.9966	8,876.95	55.0772	8,876.95	60.9438	8,876.95	50.0392	8,876.95	45.7578
9,188.96	84.428	9,188.96	84.0977	9,188.96	83.7535	9,188.96	83.0951	9,188.96	83.7835	9,188.96	80.208	9,188.96	82.0822	9,188.96	78.9429	9,188.96	79.5358	9,188.96	77.2672	9,188.96	78.8092	9,188.96	74.289	9,188.96	72.7517	9,188.96	69.0675	9,188.96	72.8688	9,188.96	66.3471	9,188.96	67.1102	9,188.96	62.1649	9,188.96	64.651	9,188.96	56.5546	9,188.96	57.894	9,188.96	47.481	9,188.96	57.6603	9,188.96	53.6258	9,188.96	52.9531	9,188.96	56.4352	9,188.96	53.154	9,188.96	55.1778	9,188.96	51.817	9,188.96	56.982	9,188.96	48.5742	9,188.96	60.6123	9,188.96	49.5544	9,188.96	58.0193	9,188.96	51.8222	9,188.96	41.7375
9,514.16	84.0364	9,514.16	84.201	9,514.16	83.7151	9,514.16	82.8268	9,514.16	83.0743	9,514.16	80.3075	9,514.16	82.0656	9,514.16	78.8014	9,514.16	78.48	9,514.16	76.1246	9,514.16	77.5574	9,514.16	73.762	9,514.16	72.9757	9,514.16	67.8185	9,514.16	70.5519	9,514.16	65.6402	9,514.16	68.132	9,514.16	59.4783	9,514.16	61.4782	9,514.16	53.6229	9,514.16	53.1656	9,514.16	50.5284	9,514.16	52.999	9,514.16	54.0054	9,514.16	45.5502	9,514.16	57.1774	9,514.16	53.8012	9,514.16	54.1972	9,514.16	48.5002	9,514.16	53.8633	9,514.16	48.1315	9,514.16	58.832	9,514.16	49.7113	9,514.16	55.6609	9,514.16	52.5436	9,514.16	46.4692
9,849.61	84.1882	9,849.61	84.3081	9,849.61	84.3459	9,849.61	82.5288	9,849.61	82.8528	9,849.61	80.4746	9,849.61	80.6254	9,849.61	78.2902	9,849.61	77.5872	9,849.61	75.8073	9,849.61	74.9363	9,849.61	72.1062	9,849.61	73.6655	9,849.61	67.1636	9,849.61	67.4687	9,849.61	63.2771	9,849.61	66.6188	9,849.61	59.1351	9,849.61	61.875	9,849.61	52.9192	9,849.61	52.3664	9,849.61	43.9978	9,849.61	49.8558	9,849.61	49.5377	9,849.61	47.6087	9,849.61	52.6861	9,849.61	46.341	9,849.61	52.5336	9,849.61	46.7474	9,849.61	50.7163	9,849.61	42.4307	9,849.61	54.8657	9,849.61	52.3763	9,849.61	55.7909	9,849.61	50.4316	9,849.61	44.1464
10,196.8	84.2266	10,196.8	84.199	10,196.8	84.1033	10,196.8	82.4936	10,196.8	83.0862	10,196.8	80.1715	10,196.8	79.8399	10,196.8	78.1795	10,196.8	78.3656	10,196.8	74.8795	10,196.8	75.0167	10,196.8	71.2857	10,196.8	73.3904	10,196.8	66.1044	10,196.8	69.3135	10,196.8	63.7579	10,196.8	63.1267	10,196.8	59.1628	10,196.8	62.8062	10,196.8	49.5263	10,196.8	55.3781	10,196.8	51.5599	10,196.8	55.8533	10,196.8	54.2075	10,196.8	51.6932	10,196.8	53.757	10,196.8	31.6285	10,196.8	50.4888	10,196.8	26.6701	10,196.8	49.3975	10,196.8	47.4096	10,196.8	54.4816	10,196.8	51.0891	10,196.8	55.5607	10,196.8	47.6407	10,196.8	45.3566
10,555.7	84.4868	10,555.7	83.8656	10,555.7	84.0309	10,555.7	82.1674	10,555.7	82.8315	10,555.7	80.2572	10,555.7	80.9842	10,555.7	77.6808	10,555.7	77.8861	10,555.7	73.9451	10,555.7	76.3054	10,555.7	70.6867	10,555.7	70.1526	10,555.7	64.6789	10,555.7	68.3945	10,555.7	62.0759	10,555.7	65.0765	10,555.7	55.4333	10,555.7	61.787	10,555.7	51.8844	10,555.7	52.1211	10,555.7	45.8467	10,555.7	48.8093	10,555.7	49.8974	10,555.7	40.3782	10,555.7	51.5008	10,555.7	46.7813	10,555.7	50.6772	10,555.7	41.3094	10,555.7	51.635	10,555.7	45.3546	10,555.7	52.5213	10,555.7	50.7433	10,555.7	54.4202	10,555.7	49.9144	10,555.7	44.7788
10,927.7	84.5059	10,927.7	83.8112	10,927.7	83.7727	10,927.7	81.8934	10,927.7	82.5187	10,927.7	80.168	10,927.7	81.3914	10,927.7	76.818	10,927.7	78.1013	10,927.7	73.5262	10,927.7	75.7316	10,927.7	70.1499	10,927.7	70.3107	10,927.7	63.5517	10,927.7	70.2331	10,927.7	60.4107	10,927.7	61.5682	10,927.7	58.389	10,927.7	59.4417	10,927.7	51.3699	10,927.7	49.0447	10,927.7	24.7162	10,927.7	49.9915	10,927.7	49.6419	10,927.7	48.7808	10,927.7	50.525	10,927.7	50.1477	10,927.7	49.8761	10,927.7	48.5635	10,927.7	49.435	10,927.7	47.5428	10,927.7	50.5133	10,927.7	50.5382	10,927.7	55.5596	10,927.7	48.1707	10,927.7	40.5322
11,313	84.5391	11,313	83.4044	11,313	84.1391	11,313	81.8104	11,313	82.5512	11,313	79.9222	11,313	80.1428	11,313	76.7826	11,313	78.0427	11,313	72.5188	11,313	74.8722	11,313	69.8297	11,313	71.769	11,313	64.0011	11,313	67.578	11,313	59.9487	11,313	60.0526	11,313	58.4129	11,313	61.6961	11,313	47.9755	11,313	54.9257	11,313	50.3311	11,313	57.5517	11,313	50.198	11,313	50.7046	11,313	52.3268	11,313	25.1133	11,313	50.0212	11,313	42.3008	11,313	48.7789	11,313	44.2733	11,313	47.4633	11,313	42.5041	11,313	52.0633	11,313	50.8383	11,313	39.1594
11,712.9	84.759	11,712.9	83.2845	11,712.9	84.2874	11,712.9	82.2523	11,712.9	83.0182	11,712.9	79.4164	11,712.9	80.3285	11,712.9	76.4591	11,712.9	77.337	11,712.9	71.9987	11,712.9	73.6803	11,712.9	68.4253	11,712.9	71.3191	11,712.9	63.7777	11,712.9	65.5063	11,712.9	59.2684	11,712.9	61.0434	11,712.9	54.1839	11,712.9	57.1433	11,712.9	44.8258	11,712.9	55.3207	11,712.9	36.9899	11,712.9	53.5999	11,712.9	44.3089	11,712.9	45.747	11,712.9	48.1905	11,712.9	41.5017	11,712.9	48.6153	11,712.9	45.705	11,712.9	49.8704	11,712.9	34.4533	11,712.9	46.5568	11,712.9	43.1774	11,712.9	51.3685	11,712.9	47.5533	11,712.9	40.0524
12,126	84.5826	12,126	83.5261	12,126	84.207	12,126	82.3167	12,126	83.1667	12,126	79.1463	12,126	81.36	12,126	75.9096	12,126	76.195	12,126	71.3371	12,126	72.2484	12,126	67.8091	12,126	69.2902	12,126	61.9085	12,126	63.8647	12,126	57.5429	12,126	59.0331	12,126	52.2647	12,126	55.4386	12,126	46.429	12,126	37.9849	12,126	43.0386	12,126	41.4965	12,126	47.2765	12,126	46.7206	12,126	49.1374	12,126	44.1403	12,126	47.0516	12,126	26.294	12,126	47.5235	12,126	39.9268	12,126	44.8505	12,126	43.978	12,126	49.3467	12,126	46.1938	12,126	31.5448
12,553.7	84.3588	12,553.7	83.6511	12,553.7	83.8708	12,553.7	82.183	12,553.7	82.3549	12,553.7	79.1232	12,553.7	79.5654	12,553.7	75.714	12,553.7	75.2806	12,553.7	71.0985	12,553.7	71.2717	12,553.7	67.3467	12,553.7	66.4249	12,553.7	60.8006	12,553.7	61.1178	12,553.7	56.878	12,553.7	52.8552	12,553.7	52.2739	12,553.7	52.0881	12,553.7	48.1447	12,553.7	35.4839	12,553.7	43.1162	12,553.7	49.4574	12,553.7	46.0631	12,553.7	42.7991	12,553.7	47.0489	12,553.7	39.7455	12,553.7	46.7389	12,553.7	41.2986	12,553.7	41.5844	12,553.7	38.7618	12,553.7	41.6686	12,553.7	41.2786	12,553.7	46.3767	12,553.7	44.7642	12,553.7	42.023
12,996.1	84.7362	12,996.1	83.9877	12,996.1	83.9326	12,996.1	82.5733	12,996.1	82.4984	12,996.1	79.4704	12,996.1	79.2611	12,996.1	75.7642	12,996.1	74.8749	12,996.1	70.8558	12,996.1	70.589	12,996.1	66.8247	12,996.1	63.3938	12,996.1	59.0359	12,996.1	56.5118	12,996.1	54.4061	12,996.1	50.5639	12,996.1	51.7044	12,996.1	47.3563	12,996.1	48.6798	12,996.1	45.8266	12,996.1	40.979	12,996.1	52.3348	12,996.1	40.2619	12,996.1	44.3892	12,996.1	46.4706	12,996.1	36.9487	12,996.1	45.6773	12,996.1	36.5331	12,996.1	45.3141	12,996.1	36.3476	12,996.1	42.881	12,996.1	44.1412	12,996.1	48.6859	12,996.1	47.1013	12,996.1	42.4589
13,454.6	85.3162	13,454.6	84.5958	13,454.6	84.094	13,454.6	83.0262	13,454.6	82.4255	13,454.6	79.7542	13,454.6	79.113	13,454.6	75.6742	13,454.6	73.3406	13,454.6	69.7624	13,454.6	66.8782	13,454.6	65.7179	13,454.6	61.9621	13,454.6	58.9552	13,454.6	55.1037	13,454.6	54.542	13,454.6	54.1915	13,454.6	50.9211	13,454.6	46.0497	13,454.6	50.9314	13,454.6	56.2095	13,454.6	37.5308	13,454.6	59.31	13,454.6	40.8667	13,454.6	49.3598	13,454.6	46.4753	13,454.6	38.8015	13,454.6	45.599	13,454.6	31.8758	13,454.6	46.8746	13,454.6	41.0124	13,454.6	43.1381	13,454.6	43.7995	13,454.6	47.9071	13,454.6	46.8758	13,454.6	44.6183
13,929.2	85.1588	13,929.2	84.8213	13,929.2	84.1685	13,929.2	83.0833	13,929.2	81.6092	13,929.2	79.4454	13,929.2	77.5577	13,929.2	75.3169	13,929.2	71.4486	13,929.2	69.0455	13,929.2	65.8491	13,929.2	64.1074	13,929.2	63.7932	13,929.2	59.9599	13,929.2	57.3065	13,929.2	56.1568	13,929.2	54.9002	13,929.2	51.8738	13,929.2	53.4479	13,929.2	49.6137	13,929.2	55.6071	13,929.2	39.4259	13,929.2	59.2292	13,929.2	43.6025	13,929.2	48.6527	13,929.2	47.1742	13,929.2	42.9644	13,929.2	44.8202	13,929.2	33.1674	13,929.2	45.7551	13,929.2	43.9328	13,929.2	46.1859	13,929.2	41.78	13,929.2	48.0324	13,929.2	47.0209	13,929.2	46.3223
14,419.9	84.6732	14,419.9	84.6131	14,419.9	84.1722	14,419.9	82.6716	14,419.9	81.6133	14,419.9	78.6313	14,419.9	77.017	14,419.9	74.6589	14,419.9	71.6593	14,419.9	67.3511	14,419.9	67.2825	14,419.9	63.162	14,419.9	64.8288	14,419.9	59.6376	14,419.9	59.0475	14,419.9	54.7076	14,419.9	58.049	14,419.9	50.1836	14,419.9	51.5798	14,419.9	47.3152	14,419.9	56.0678	14,419.9	36.1162	14,419.9	61.13	14,419.9	42.7159	14,419.9	50.4441	14,419.9	46.4	14,419.9	38.0899	14,419.9	43.676	14,419.9	34.3152	14,419.9	46.3258	14,419.9	39.6829	14,419.9	47.8801	14,419.9	46.6616	14,419.9	47.8848	14,419.9	47.8829	14,419.9	45.0721
14,928.2	84.2208	14,928.2	84.2644	14,928.2	83.8904	14,928.2	82.0658	14,928.2	81.1222	14,928.2	77.5055	14,928.2	77.3786	14,928.2	73.4363	14,928.2	71.4671	14,928.2	65.7891	14,928.2	66.8105	14,928.2	62.9075	14,928.2	66.726	14,928.2	58.2972	14,928.2	58.5723	14,928.2	56.2029	14,928.2	60.2268	14,928.2	51.0251	14,928.2	50.8843	14,928.2	49.4384	14,928.2	58.6723	14,928.2	35.887	14,928.2	61.1505	14,928.2	42.9142	14,928.2	49.0627	14,928.2	45.2254	14,928.2	44.5281	14,928.2	40.1808	14,928.2	45.5126	14,928.2	46.5535	14,928.2	41.6136	14,928.2	48.4954	14,928.2	45.0794	14,928.2	46.3716	14,928.2	46.7989	14,928.2	46.9288
15,455.6	83.7957	15,455.6	83.798	15,455.6	83.8614	15,455.6	81.2124	15,455.6	80.7579	15,455.6	76.8673	15,455.6	76.883	15,455.6	71.6978	15,455.6	73.0479	15,455.6	66.5877	15,455.6	67.9481	15,455.6	63.6998	15,455.6	64.6237	15,455.6	60.6415	15,455.6	63.0538	15,455.6	55.9686	15,455.6	55.6252	15,455.6	52.0639	15,455.6	47.2429	15,455.6	51.1049	15,455.6	58.3774	15,455.6	44.5108	15,455.6	62.0558	15,455.6	43.0175	15,455.6	51.1544	15,455.6	45.4679	15,455.6	42.2162	15,455.6	34.7466	15,455.6	44.7607	15,455.6	44.5103	15,455.6	40.9686	15,455.6	47.6371	15,455.6	43.9468	15,455.6	41.9134	15,455.6	45.611	15,455.6	45.2053
16,000.5	84.2604	16,000.5	84.1042	16,000.5	84.2037	16,000.5	81.3644	16,000.5	81.2889	16,000.5	77.3279	16,000.5	77.234	16,000.5	72.214	16,000.5	71.9876	16,000.5	66.6445	16,000.5	66.9962	16,000.5	64.4076	16,000.5	61.4423	16,000.5	60.7807	16,000.5	59.2226	16,000.5	53.0028	16,000.5	56.0603	16,000.5	48.6143	16,000.5	32.6629	16,000.5	49.1189	16,000.5	57.49	16,000.5	44.1894	16,000.5	61.9817	16,000.5	39.9675	16,000.5	50.3084	16,000.5	41.7822	16,000.5	39.2277	16,000.5	32.3459	16,000.5	36.5097	16,000.5	43.8674	16,000.5	40.8582	16,000.5	43.6975	16,000.5	48.3868	16,000.5	39.8351	16,000.5	45.4051	16,000.5	42.4823
16,564.5	84.5935	16,564.5	84.2153	16,564.5	84.0812	16,564.5	81.3594	16,564.5	81.0943	16,564.5	77.0073	16,564.5	76.8202	16,564.5	71.7747	16,564.5	71.3458	16,564.5	64.9358	16,564.5	66.0376	16,564.5	61.589	16,564.5	59.4864	16,564.5	55.7182	16,564.5	56.2563	16,564.5	50.2824	16,564.5	49.4233	16,564.5	44.3226	16,564.5	43.2126	16,564.5	45.5019	16,564.5	60.4971	16,564.5	42.7095	16,564.5	63.529	16,564.5	34.5616	16,564.5	50.7117	16,564.5	34.185	16,564.5	29.63	16,564.5	35.1697	16,564.5	42.7136	16,564.5	38.3493	16,564.5	35.4941	16,564.5	43.3131	16,564.5	40.5369	16,564.5	39.0031	16,564.5	45.7377	16,564.5	31.0901
17,148.9	84.5401	17,148.9	83.8193	17,148.9	83.5124	17,148.9	80.8498	17,148.9	80.5003	17,148.9	76.4306	17,148.9	76.029	17,148.9	70.1978	17,148.9	69.3051	17,148.9	62.2603	17,148.9	64.1968	17,148.9	57.8684	17,148.9	53.5541	17,148.9	52.0938	17,148.9	47.2719	17,148.9	48.646	17,148.9	39.7286	17,148.9	45.0641	17,148.9	47.209	17,148.9	42.7839	17,148.9	61.1866	17,148.9	43.4182	17,148.9	63.793	17,148.9	31.1969	17,148.9	50.5894	17,148.9	36.944	17,148.9	33.7091	17,148.9	31.451	17,148.9	34.035	17,148.9	39.0538	17,148.9	36.6067	17,148.9	31.1481	17,148.9	31.5603	17,148.9	25.2503	17,148.9	36.9939	17,148.9	37.671
17,752.4	84.3026	17,752.4	83.189	17,752.4	82.7881	17,752.4	80.5617	17,752.4	79.5818	17,752.4	75.1282	17,752.4	74.7835	17,752.4	68.4051	17,752.4	67.6315	17,752.4	59.0045	17,752.4	59.8995	17,752.4	55.6723	17,752.4	52.0979	17,752.4	54.8538	17,752.4	48.0167	17,752.4	48.8304	17,752.4	44.7621	17,752.4	46.3358	17,752.4	48.6694	17,752.4	41.2261	17,752.4	62.4503	17,752.4	44.2005	17,752.4	64.8874	17,752.4	31.0733	17,752.4	51.3709	17,752.4	34.5477	17,752.4	40.8317	17,752.4	32.8049	17,752.4	35.075	17,752.4	36.2074	17,752.4	33.7271	17,752.4	33.1293	17,752.4	38.7236	17,752.4	34.3918	17,752.4	28.986	17,752.4	42.2025
18,379.4	83.923	18,379.4	82.5014	18,379.4	82.0507	18,379.4	79.8671	18,379.4	79.0444	18,379.4	73.6032	18,379.4	73.2074	18,379.4	66.5679	18,379.4	65.2906	18,379.4	58.0459	18,379.4	60.1002	18,379.4	57.71	18,379.4	56.1705	18,379.4	55.9693	18,379.4	53.0457	18,379.4	49.8735	18,379.4	47.5472	18,379.4	47.886	18,379.4	48.4602	18,379.4	39.0105	18,379.4	62.5428	18,379.4	45.0454	18,379.4	64.4523	18,379.4	31.3694	18,379.4	51.8281	18,379.4	31.2201	18,379.4	40.2802	18,379.4	33.11	18,379.4	36.1536	18,379.4	28.8902	18,379.4	29.5636	18,379.4	37.5402	18,379.4	39.3489	18,379.4	35.552	18,379.4	37.7871	18,379.4	42.1449
19,026.9	83.2838	19,026.9	81.911	19,026.9	81.2675	19,026.9	78.9907	19,026.9	78.0725	19,026.9	72.5439	19,026.9	72.095	19,026.9	64.0478	19,026.9	64.3534	19,026.9	54.5525	19,026.9	56.9641	19,026.9	57.4642	19,026.9	57.1466	19,026.9	55.5283	19,026.9	50.8926	19,026.9	49.1408	19,026.9	46.9804	19,026.9	45.3784	19,026.9	48.2246	19,026.9	34.3646	19,026.9	60.8499	19,026.9	42.6044	19,026.9	63.4285	19,026.9	29.6702	19,026.9	49.8524	19,026.9	31.4598	19,026.9	37.2643	19,026.9	31.8132	19,026.9	37.5272	19,026.9	31.0038	19,026.9	35.4748	19,026.9	37.4017	19,026.9	41.5111	19,026.9	38.821	19,026.9	42.2761	19,026.9	42.0123
19,697.8	82.1954	19,697.8	81.0923	19,697.8	80.3123	19,697.8	77.5631	19,697.8	76.6714	19,697.8	70.8987	19,697.8	69.7867	19,697.8	61.3373	19,697.8	60.4039	19,697.8	52.4353	19,697.8	55.8547	19,697.8	53.7552	19,697.8	55.1235	19,697.8	51.543	19,697.8	49.4063	19,697.8	43.5545	19,697.8	43.2049	19,697.8	38.777	19,697.8	45.5313	19,697.8	32.4918	19,697.8	59.4551	19,697.8	37.883	19,697.8	61.4832	19,697.8	23.9724	19,697.8	48.1609	19,697.8	25.5265	19,697.8	34.268	19,697.8	25.5716	19,697.8	35.874	19,697.8	33.717	19,697.8	32.2462	19,697.8	34.6892	19,697.8	34.8352	19,697.8	40.9393	19,697.8	38.9161	19,697.8	40.9212
19,999.5	81.6006	19,999.5	80.3899	19,999.5	79.6839	19,999.5	77.0031	19,999.5	76.1354	19,999.5	69.9364	19,999.5	69.4294	19,999.5	59.5727	19,999.5	56.2638	19,999.5	52.5413	19,999.5	53.8539	19,999.5	51.1063	19,999.5	54.0779	19,999.5	51.0595	19,999.5	48.3663	19,999.5	39.9017	19,999.5	40.7502	19,999.5	44.2226	19,999.5	44.6092	19,999.5	36.3478	19,999.5	58.7404	19,999.5	45.7439	19,999.5	60.8907	19,999.5	43.509	19,999.5	44.0596	19,999.5	46.8804	19,999.5	41.5942	19,999.5	34.9258	19,999.5	42.404	19,999.5	36.6083	19,999.5	44.1398	19,999.5	40.3388	19,999.5	29.8269	19,999.5	45.276	19,999.5	41.8745	19,999.5	36.0616
