* Freq[Hz]      Mag   Phase[Deg]
5.00000   -240.000     0.000
5.07273   -240.000     0.000
5.14651   -240.000     0.000
5.22137   -240.000     0.000
5.29732   -240.000     0.000
5.37437   -240.000     0.000
5.45254   -240.000     0.000
5.53185   -240.000     0.000
5.61231   -240.000     0.000
5.69394   -240.000     0.000
5.77676   -240.000     0.000
5.86079   -240.000     0.000
5.94604   -240.000     0.000
6.03252   -240.000     0.000
6.12027   -240.000     0.000
6.20929   -240.000     0.000
6.29961   -240.000     0.000
6.39124   -240.000     0.000
6.48420   -240.000     0.000
6.57851   -240.000     0.000
6.67420   -240.000     0.000
6.77128   -240.000     0.000
6.86977   -240.000     0.000
6.96969   -240.000     0.000
7.07107   -240.000     0.000
7.17392   -240.000     0.000
7.27827   -240.000     0.000
7.38413   -240.000     0.000
7.49154   -240.000     0.000
7.60050   -240.000     0.000
7.71105   -240.000     0.000
7.82321   -240.000     0.000
7.93701   -240.000     0.000
8.05245   -240.000     0.000
8.16958   -240.000     0.000
8.28841   -240.000     0.000
8.40896   -240.000     0.000
8.53128   -240.000     0.000
8.65537   -240.000     0.000
8.78126   -232.181     0.000
8.90899   -221.826     0.000
9.03857   -211.470     0.000
9.17004   -201.113     0.000
9.30342   -190.756     0.000
9.43874   -180.399     0.000
9.57603   -170.040     0.000
9.71532   -159.682     0.000
9.85663   -149.323     0.000
10.0000   -138.963     0.000
10.1455   -139.033     0.000
10.2930   -111.050     0.000
10.4427    -14.463     0.000
10.5946     19.951     0.000
10.7487     16.483     0.000
10.9051     10.648     0.000
11.0637      9.944     0.000
11.2246     16.975     0.000
11.3879     21.441     0.000
11.5535     25.154     0.000
11.7216     28.272     0.000
11.8921     31.054     0.000
12.0650     33.493     0.000
12.2405     35.469     0.000
12.4186     36.920     0.000
12.5992     38.065     0.000
12.7825     38.876     0.000
12.9684     39.198     0.000
13.1570     39.129     0.000
13.3484     38.577     0.000
13.5426     37.395     0.000
13.7395     35.327     0.000
13.9394     31.780     0.000
14.1421     30.340     0.000
14.3478     32.252     0.000
14.5565     36.436     0.000
14.7683     39.432     0.000
14.9831     41.510     0.000
15.2010     42.802     0.000
15.4221     43.721     0.000
15.6464     44.378     0.000
15.8740     44.965     0.000
16.1049     45.650     0.000
16.3392     46.475     0.000
16.5768     47.383     0.000
16.8179     48.245     0.000
17.0626     48.889     0.000
17.3107     49.276     0.000
17.5625     49.341     0.000
17.8180     49.158     0.000
18.0771     48.828     0.000
18.3401     48.602     0.000
18.6068     48.791     0.000
18.8775     49.444     0.000
19.1521     50.338     0.000
19.4306     51.181     0.000
19.7133     51.836     0.000
20.0000     52.273     0.000
20.2909     52.593     0.000
20.5860     52.918     0.000
20.8855     53.343     0.000
21.1893     53.843     0.000
21.4975     54.346     0.000
21.8102     54.762     0.000
22.1274     55.108     0.000
22.4492     55.443     0.000
22.7758     55.833     0.000
23.1071     56.306     0.000
23.4432     56.799     0.000
23.7841     57.270     0.000
24.1301     57.734     0.000
24.4811     58.252     0.000
24.8372     58.876     0.000
25.1984     59.525     0.000
25.5649     60.080     0.000
25.9368     60.455     0.000
26.3141     60.686     0.000
26.6968     60.916     0.000
27.0851     61.323     0.000
27.4791     61.923     0.000
27.8788     62.584     0.000
28.2843     63.158     0.000
28.6957     63.624     0.000
29.1131     64.088     0.000
29.5365     64.625     0.000
29.9661     65.236     0.000
30.4020     65.846     0.000
30.8442     66.412     0.000
31.2929     66.928     0.000
31.7480     67.403     0.000
32.2098     67.853     0.000
32.6783     68.330     0.000
33.1536     68.892     0.000
33.6359     69.511     0.000
34.1251     70.067     0.000
34.6215     70.464     0.000
35.1250     70.749     0.000
35.6359     71.080     0.000
36.1543     71.552     0.000
36.6802     72.082     0.000
37.2137     72.552     0.000
37.7550     72.959     0.000
38.3041     73.362     0.000
38.8613     73.755     0.000
39.4265     74.079     0.000
40.0000     74.321     0.000
40.5818     74.519     0.000
41.1721     74.708     0.000
41.7710     74.911     0.000
42.3785     75.166     0.000
42.9949     75.430     0.000
43.6203     75.629     0.000
44.2548     75.743     0.000
44.8985     75.829     0.000
45.5515     75.947     0.000
46.2141     76.049     0.000
46.8863     76.081     0.000
47.5683     76.110     0.000
48.2602     76.185     0.000
48.9621     76.244     0.000
49.6743     76.242     0.000
50.3968     76.236     0.000
51.1299     76.280     0.000
51.8736     76.363     0.000
52.6281     76.448     0.000
53.3936     76.506     0.000
54.1702     76.547     0.000
54.9581     76.597     0.000
55.7575     76.659     0.000
56.5685     76.725     0.000
57.3914     76.793     0.000
58.2261     76.859     0.000
59.0730     76.936     0.000
59.9323     77.029     0.000
60.8040     77.122     0.000
61.6884     77.210     0.000
62.5857     77.307     0.000
63.4960     77.413     0.000
64.4196     77.523     0.000
65.3566     77.640     0.000
66.3073     77.752     0.000
67.2717     77.858     0.000
68.2502     77.965     0.000
69.2429     78.079     0.000
70.2501     78.184     0.000
71.2719     78.267     0.000
72.3086     78.352     0.000
73.3603     78.455     0.000
74.4274     78.560     0.000
75.5099     78.640     0.000
76.6083     78.705     0.000
77.7226     78.799     0.000
78.8531     78.922     0.000
80.0000     79.050     0.000
81.1636     79.177     0.000
82.3442     79.304     0.000
83.5419     79.412     0.000
84.7570     79.505     0.000
85.9899     79.609     0.000
87.2406     79.728     0.000
88.5096     79.857     0.000
89.7970     79.990     0.000
91.1031     80.122     0.000
92.4282     80.246     0.000
93.7726     80.341     0.000
95.1366     80.423     0.000
96.5204     80.491     0.000
97.9243     80.543     0.000
99.3486     80.587     0.000
100.794     80.641     0.000
102.260     80.701     0.000
103.747     80.754     0.000
105.256     80.814     0.000
106.787     80.881     0.000
108.340     80.936     0.000
109.916     80.982     0.000
111.515     81.024     0.000
113.137     81.052     0.000
114.783     81.066     0.000
116.452     81.064     0.000
118.146     81.047     0.000
119.865     81.025     0.000
121.608     80.999     0.000
123.377     80.973     0.000
125.171     80.955     0.000
126.992     80.940     0.000
128.839     80.922     0.000
130.713     80.894     0.000
132.615     80.853     0.000
134.543     80.801     0.000
136.500     80.740     0.000
138.486     80.675     0.000
140.500     80.602     0.000
142.544     80.519     0.000
144.617     80.431     0.000
146.721     80.347     0.000
148.855     80.275     0.000
151.020     80.204     0.000
153.217     80.123     0.000
155.445     80.036     0.000
157.706     79.945     0.000
160.000     79.851     0.000
162.327     79.750     0.000
164.688     79.649     0.000
167.084     79.548     0.000
169.514     79.449     0.000
171.980     79.354     0.000
174.481     79.251     0.000
177.019     79.122     0.000
179.594     78.986     0.000
182.206     78.854     0.000
184.856     78.728     0.000
187.545     78.608     0.000
190.273     78.479     0.000
193.041     78.348     0.000
195.849     78.211     0.000
198.697     78.057     0.000
201.587     77.888     0.000
204.520     77.726     0.000
207.494     77.593     0.000
210.512     77.466     0.000
213.574     77.323     0.000
216.681     77.178     0.000
219.833     77.036     0.000
223.030     76.904     0.000
226.274     76.793     0.000
229.565     76.716     0.000
232.905     76.663     0.000
236.292     76.609     0.000
239.729     76.537     0.000
243.216     76.465     0.000
246.754     76.414     0.000
250.343     76.388     0.000
253.984     76.373     0.000
257.678     76.356     0.000
261.426     76.343     0.000
265.229     76.343     0.000
269.087     76.333     0.000
273.001     76.290     0.000
276.972     76.226     0.000
281.000     76.147     0.000
285.088     76.088     0.000
289.234     76.060     0.000
293.441     76.039     0.000
297.709     76.009     0.000
302.040     75.962     0.000
306.433     75.881     0.000
310.890     75.773     0.000
315.412     75.670     0.000
320.000     75.570     0.000
324.655     75.471     0.000
329.377     75.380     0.000
334.168     75.301     0.000
339.028     75.247     0.000
343.959     75.186     0.000
348.962     75.094     0.000
354.038     74.986     0.000
359.188     74.901     0.000
364.412     74.859     0.000
369.713     74.854     0.000
375.090     74.869     0.000
380.546     74.894     0.000
386.081     74.928     0.000
391.697     74.973     0.000
397.394     75.020     0.000
403.175     75.062     0.000
409.039     75.099     0.000
414.989     75.126     0.000
421.025     75.147     0.000
427.149     75.161     0.000
433.362     75.167     0.000
439.665     75.163     0.000
446.060     75.146     0.000
452.548     75.115     0.000
459.131     75.069     0.000
465.809     75.013     0.000
472.584     74.941     0.000
479.458     74.856     0.000
486.432     74.759     0.000
493.507     74.651     0.000
500.686     74.538     0.000
507.968     74.438     0.000
515.357     74.369     0.000
522.853     74.340     0.000
530.458     74.360     0.000
538.174     74.431     0.000
546.002     74.552     0.000
553.943     74.707     0.000
562.001     74.879     0.000
570.175     75.049     0.000
578.469     75.189     0.000
586.883     75.273     0.000
595.419     75.286     0.000
604.080     75.219     0.000
612.866     75.065     0.000
621.780     74.828     0.000
630.824     74.518     0.000
640.000     74.163     0.000
649.309     73.808     0.000
658.753     73.509     0.000
668.335     73.311     0.000
678.056     73.256     0.000
687.919     73.343     0.000
697.925     73.535     0.000
708.077     73.779     0.000
718.376     74.023     0.000
728.825     74.220     0.000
739.426     74.350     0.000
750.181     74.407     0.000
761.093     74.415     0.000
772.163     74.395     0.000
783.394     74.371     0.000
794.789     74.374     0.000
806.349     74.415     0.000
818.078     74.487     0.000
829.977     74.581     0.000
842.050     74.689     0.000
854.298     74.819     0.000
866.724     74.984     0.000
879.330     75.209     0.000
892.120     75.512     0.000
905.097     75.878     0.000
918.262     76.279     0.000
931.618     76.671     0.000
945.169     77.007     0.000
958.917     77.244     0.000
972.864     77.372     0.000
987.015     77.381     0.000
1001.37     77.283     0.000
1015.94     77.112     0.000
1030.71     76.907     0.000
1045.71     76.703     0.000
1060.92     76.539     0.000
1076.35     76.446     0.000
1092.00     76.428     0.000
1107.89     76.483     0.000
1124.00     76.594     0.000
1140.35     76.708     0.000
1156.94     76.795     0.000
1173.77     76.818     0.000
1190.84     76.756     0.000
1208.16     76.622     0.000
1225.73     76.420     0.000
1243.56     76.195     0.000
1261.65     75.956     0.000
1280.00     75.699     0.000
1298.62     75.390     0.000
1317.51     75.020     0.000
1336.67     74.599     0.000
1356.11     74.189     0.000
1375.84     73.824     0.000
1395.85     73.491     0.000
1416.15     73.119     0.000
1436.75     72.645     0.000
1457.65     72.090     0.000
1478.85     71.572     0.000
1500.36     71.211     0.000
1522.19     71.001     0.000
1544.33     70.793     0.000
1566.79     70.472     0.000
1589.58     70.097     0.000
1612.70     69.877     0.000
1636.16     69.952     0.000
1659.95     70.239     0.000
1684.10     70.512     0.000
1708.60     70.672     0.000
1733.45     70.726     0.000
1758.66     70.704     0.000
1784.24     70.674     0.000
1810.19     70.772     0.000
1836.52     71.168     0.000
1863.24     71.812     0.000
1890.34     72.441     0.000
1917.83     72.828     0.000
1945.73     72.981     0.000
1974.03     73.135     0.000
2002.74     73.437     0.000
2031.87     73.770     0.000
2061.43     73.913     0.000
2091.41     73.761     0.000
2121.83     73.456     0.000
2152.69     73.233     0.000
2184.01     73.193     0.000
2215.77     73.192     0.000
2248.00     73.063     0.000
2280.70     72.778     0.000
2313.87     72.507     0.000
2347.53     72.349     0.000
2381.68     72.176     0.000
2416.32     72.038     0.000
2451.46     72.159     0.000
2487.12     72.369     0.000
2523.30     72.333     0.000
2560.00     72.161     0.000
2597.24     72.020     0.000
2635.01     71.815     0.000
2673.34     71.711     0.000
2712.23     71.901     0.000
2751.68     71.943     0.000
2791.70     71.709     0.000
2832.31     71.596     0.000
2873.50     71.634     0.000
2915.30     71.739     0.000
2957.70     71.851     0.000
3000.72     71.780     0.000
3044.37     71.667     0.000
3088.65     71.576     0.000
3133.58     71.616     0.000
3179.16     71.962     0.000
3225.40     72.260     0.000
3272.31     72.443     0.000
3319.91     72.517     0.000
3368.20     72.496     0.000
3417.19     72.425     0.000
3466.89     72.253     0.000
3517.32     72.188     0.000
3568.48     72.254     0.000
3620.39     72.336     0.000
3673.05     72.314     0.000
3726.47     72.298     0.000
3780.67     72.177     0.000
3835.67     72.324     0.000
3891.46     72.656     0.000
3948.06     72.783     0.000
4005.49     72.932     0.000
4063.75     73.178     0.000
4122.86     73.126     0.000
4182.82     73.014     0.000
4243.66     73.023     0.000
4305.39     72.935     0.000
4368.01     72.781     0.000
4431.55     72.488     0.000
4496.01     72.068     0.000
4561.40     72.126     0.000
4627.75     72.031     0.000
4695.06     71.772     0.000
4763.35     71.955     0.000
4832.64     71.746     0.000
4902.93     71.733     0.000
4974.24     72.015     0.000
5046.60     72.199     0.000
5120.00     72.116     0.000
5194.47     71.981     0.000
5270.03     71.927     0.000
5346.68     72.362     0.000
5424.45     72.430     0.000
5503.35     72.310     0.000
5583.40     72.311     0.000
5664.61     71.957     0.000
5747.01     71.477     0.000
5830.60     71.828     0.000
5915.41     72.248     0.000
6001.45     72.170     0.000
6088.74     72.119     0.000
6177.30     71.818     0.000
6267.15     71.629     0.000
6358.31     71.704     0.000
6450.80     71.770     0.000
6544.62     71.407     0.000
6639.82     71.213     0.000
6736.40     70.909     0.000
6834.38     70.773     0.000
6933.79     71.147     0.000
7034.64     71.278     0.000
7136.96     71.526     0.000
7240.77     71.610     0.000
7346.09     71.752     0.000
7452.94     71.540     0.000
7561.35     71.233     0.000
7671.33     71.040     0.000
7782.91     70.615     0.000
7896.12     70.728     0.000
8010.97     70.922     0.000
8127.49     71.119     0.000
8245.71     71.107     0.000
8365.65     71.196     0.000
8487.33     71.119     0.000
8610.78     70.818     0.000
8736.03     70.132     0.000
8863.09     69.208     0.000
8992.01     68.777     0.000
9122.80     68.622     0.000
9255.50     68.447     0.000
9390.12     68.632     0.000
9526.70     68.281     0.000
9665.27     68.102     0.000
9805.86     68.316     0.000
9948.49     68.708     0.000
10093.2     69.275     0.000
10240.0     69.303     0.000
10388.9     69.944     0.000
10540.1     69.953     0.000
10693.4     69.565     0.000
10848.9     69.218     0.000
11006.7     69.202     0.000
11166.8     69.054     0.000
11329.2     69.092     0.000
11494.0     69.355     0.000
11661.2     69.415     0.000
11830.8     69.519     0.000
12002.9     70.085     0.000
12177.5     70.616     0.000
12354.6     70.802     0.000
12534.3     70.628     0.000
12716.6     69.875     0.000
12901.6     69.879     0.000
13089.2     70.093     0.000
13279.6     70.529     0.000
13472.8     70.691     0.000
13668.8     70.548     0.000
13867.6     70.034     0.000
14069.3     69.148     0.000
14273.9     69.374     0.000
14481.5     69.541     0.000
14692.2     69.501     0.000
14905.9     69.542     0.000
15122.7     68.758     0.000
15342.7     68.042     0.000
15565.8     68.288     0.000
15792.2     69.025     0.000
16021.9     69.213     0.000
16255.0     68.813     0.000
16491.4     68.239     0.000
16731.3     68.083     0.000
16974.7     67.863     0.000
17221.6     67.400     0.000
17472.1     67.383     0.000
17726.2     68.033     0.000
17984.0     69.103     0.000
18245.6     70.436     0.000
18511.0     71.522     0.000
18780.2     73.948     0.000
19053.4     76.919     0.000
19330.5     77.951     0.000
19611.7     78.547     0.000
19897.0     79.497     0.000
20186.4     80.080     0.000
20480.0     80.090     0.000
20777.9     81.218     0.000
21080.1     82.160     0.000
21386.7     81.880     0.000
21697.8     81.447     0.000
22013.4     82.134     0.000
22333.6     82.702     0.000
22658.4     82.715     0.000
22988.0     82.525     0.000
23322.4     82.658     0.000
23661.6     82.268     0.000
24005.8     82.268     0.000
24355.0     82.268     0.000
24709.2     82.268     0.000
25068.6     82.268     0.000
25433.2     82.268     0.000
25803.2     82.268     0.000
26178.5     82.268     0.000
26559.3     82.268     0.000
26945.6     82.268     0.000
27337.5     82.268     0.000
27735.2     82.268     0.000
28138.6     82.268     0.000
28547.9     82.268     0.000
28963.1     82.268     0.000
29384.4     82.268     0.000
29811.8     82.268     0.000
30245.4     82.268     0.000
30685.3     82.268     0.000
31131.7     82.268     0.000
31584.5     82.268     0.000
32043.9     82.268     0.000
32510.0     82.268     0.000
32982.8     82.268     0.000
33462.6     82.268     0.000
33949.3     82.268     0.000
34443.1     82.268     0.000
34944.1     82.268     0.000
35452.4     82.268     0.000
35968.0     82.268     0.000
36491.2     82.268     0.000
37022.0     82.268     0.000
37560.5     82.268     0.000
38106.8     82.268     0.000
38661.1     82.268     0.000
39223.4     82.268     0.000
39793.9     82.268     0.000
