"SPL Vertical"
"On-Axis"		"10°"		"-10°"		"20°"		"-20°"		"30°"		"-30°"		"40°"		"-40°"		"50°"		"-50°"		"60°"		"-60°"		"70°"		"-70°"		"80°"		"-80°"		"90°"		"-90°"		"100°"		"-100°"		"110°"		"-110°"		"120°"		"-120°"		"130°"		"-130°"		"140°"		"-140°"		"150°"		"-150°"		"160°"		"-160°"		"170°"		"-170°"		"180°"
"Frequency / Hz"	"Sound Pressure Level / dB (re 20 µPa/V)  [2.83V at 1m]"	"Frequency / Hz"	"Sound Pressure Level / dB (re 20 µPa/V)  [2.83V at 1m]"	"Frequency / Hz"	"Sound Pressure Level / dB (re 20 µPa/V)  [2.83V at 1m]"	"Frequency / Hz"	"Sound Pressure Level / dB (re 20 µPa/V)  [2.83V at 1m]"	"Frequency / Hz"	"Sound Pressure Level / dB (re 20 µPa/V)  [2.83V at 1m]"	"Frequency / Hz"	"Sound Pressure Level / dB (re 20 µPa/V)  [2.83V at 1m]"	"Frequency / Hz"	"Sound Pressure Level / dB (re 20 µPa/V)  [2.83V at 1m]"	"Frequency / Hz"	"Sound Pressure Level / dB (re 20 µPa/V)  [2.83V at 1m]"	"Frequency / Hz"	"Sound Pressure Level / dB (re 20 µPa/V)  [2.83V at 1m]"	"Frequency / Hz"	"Sound Pressure Level / dB (re 20 µPa/V)  [2.83V at 1m]"	"Frequency / Hz"	"Sound Pressure Level / dB (re 20 µPa/V)  [2.83V at 1m]"	"Frequency / Hz"	"Sound Pressure Level / dB (re 20 µPa/V)  [2.83V at 1m]"	"Frequency / Hz"	"Sound Pressure Level / dB (re 20 µPa/V)  [2.83V at 1m]"	"Frequency / Hz"	"Sound Pressure Level / dB (re 20 µPa/V)  [2.83V at 1m]"	"Frequency / Hz"	"Sound Pressure Level / dB (re 20 µPa/V)  [2.83V at 1m]"	"Frequency / Hz"	"Sound Pressure Level / dB (re 20 µPa/V)  [2.83V at 1m]"	"Frequency / Hz"	"Sound Pressure Level / dB (re 20 µPa/V)  [2.83V at 1m]"	"Frequency / Hz"	"Sound Pressure Level / dB (re 20 µPa/V)  [2.83V at 1m]"	"Frequency / Hz"	"Sound Pressure Level / dB (re 20 µPa/V)  [2.83V at 1m]"	"Frequency / Hz"	"Sound Pressure Level / dB (re 20 µPa/V)  [2.83V at 1m]"	"Frequency / Hz"	"Sound Pressure Level / dB (re 20 µPa/V)  [2.83V at 1m]"	"Frequency / Hz"	"Sound Pressure Level / dB (re 20 µPa/V)  [2.83V at 1m]"	"Frequency / Hz"	"Sound Pressure Level / dB (re 20 µPa/V)  [2.83V at 1m]"	"Frequency / Hz"	"Sound Pressure Level / dB (re 20 µPa/V)  [2.83V at 1m]"	"Frequency / Hz"	"Sound Pressure Level / dB (re 20 µPa/V)  [2.83V at 1m]"	"Frequency / Hz"	"Sound Pressure Level / dB (re 20 µPa/V)  [2.83V at 1m]"	"Frequency / Hz"	"Sound Pressure Level / dB (re 20 µPa/V)  [2.83V at 1m]"	"Frequency / Hz"	"Sound Pressure Level / dB (re 20 µPa/V)  [2.83V at 1m]"	"Frequency / Hz"	"Sound Pressure Level / dB (re 20 µPa/V)  [2.83V at 1m]"	"Frequency / Hz"	"Sound Pressure Level / dB (re 20 µPa/V)  [2.83V at 1m]"	"Frequency / Hz"	"Sound Pressure Level / dB (re 20 µPa/V)  [2.83V at 1m]"	"Frequency / Hz"	"Sound Pressure Level / dB (re 20 µPa/V)  [2.83V at 1m]"	"Frequency / Hz"	"Sound Pressure Level / dB (re 20 µPa/V)  [2.83V at 1m]"	"Frequency / Hz"	"Sound Pressure Level / dB (re 20 µPa/V)  [2.83V at 1m]"	"Frequency / Hz"	"Sound Pressure Level / dB (re 20 µPa/V)  [2.83V at 1m]"	"Frequency / Hz"	"Sound Pressure Level / dB (re 20 µPa/V)  [2.83V at 1m]"
20.5078	62.6782	20.5078	62.4405	20.5078	62.8819	20.5078	62.1769	20.5078	63.041	20.5078	61.8938	20.5078	63.1426	20.5078	61.5962	20.5078	63.1721	20.5078	61.2879	20.5078	63.1143	20.5078	60.9723	20.5078	62.9558	20.5078	60.6524	20.5078	62.6874	20.5078	60.3309	20.5078	62.3066	20.5078	60.0102	20.5078	61.8205	20.5078	59.6927	20.5078	61.2475	20.5078	59.3811	20.5078	60.6184	20.5078	59.0788	20.5078	59.9741	20.5078	58.7904	20.5078	59.3615	20.5078	58.5224	20.5078	58.8252	20.5078	58.2844	20.5078	58.4	20.5078	58.089	20.5078	58.1045	20.5078	57.953	20.5078	57.9404	20.5078	57.8963
21.9727	63.7319	21.9727	63.453	21.9727	63.9586	21.9727	63.1352	21.9727	64.1169	21.9727	62.7895	21.9727	64.1892	21.9727	62.4249	21.9727	64.1574	21.9727	62.0486	21.9727	64.0051	21.9727	61.6666	21.9727	63.7205	21.9727	61.2842	21.9727	63.3009	21.9727	60.9065	21.9727	62.7569	21.9727	60.5384	21.9727	62.1166	21.9727	60.1851	21.9727	61.427	21.9727	59.8522	21.9727	60.7481	21.9727	59.5458	21.9727	60.1392	21.9727	59.2725	21.9727	59.6396	21.9727	59.0395	21.9727	59.2596	21.9727	58.8538	21.9727	58.9866	21.9727	58.7219	21.9727	58.8006	21.9727	58.6485	21.9727	58.6863	21.9727	58.6363
23.4375	63.1452	23.4375	62.8724	23.4375	63.3537	23.4375	62.5484	23.4375	63.4822	23.4375	62.1843	23.4375	63.5129	23.4375	61.7894	23.4375	63.4277	23.4375	61.3718	23.4375	63.2105	23.4375	60.9389	23.4375	62.8513	23.4375	60.4984	23.4375	62.3525	23.4375	60.0587	23.4375	61.7355	23.4375	59.6289	23.4375	61.0481	23.4375	59.22	23.4375	60.3628	23.4375	58.8444	23.4375	59.76	23.4375	58.5161	23.4375	59.2949	23.4375	58.2495	23.4375	58.9711	23.4375	58.0577	23.4375	58.748	23.4375	57.9497	23.4375	58.5725	23.4375	57.9271	23.4375	58.4084	23.4375	57.9818	23.4375	58.2458	23.4375	58.096
24.9023	62.8198	24.9023	62.5235	24.9023	63.0509	24.9023	62.1765	24.9023	63.2007	24.9023	61.7916	24.9023	63.2522	24.9023	61.3807	24.9023	63.1894	24.9023	60.9551	24.9023	63.0007	24.9023	60.5262	24.9023	62.6835	24.9023	60.1067	24.9023	62.2515	24.9023	59.7103	24.9023	61.7412	24.9023	59.3522	24.9023	61.2144	24.9023	59.0485	24.9023	60.7473	24.9023	58.8147	24.9023	60.4018	24.9023	58.6639	24.9023	60.1938	24.9023	58.604	24.9023	60.0869	24.9023	58.636	24.9023	60.0191	24.9023	58.7516	24.9023	59.9352	24.9023	58.934	24.9023	59.8043	24.9023	59.1588	24.9023	59.6207	24.9023	59.3974
26.3672	60.6906	26.3672	60.3529	26.3672	60.9081	26.3672	59.9108	26.3672	60.9837	26.3672	59.3757	26.3672	60.8907	26.3672	58.7549	26.3672	60.5976	26.3672	58.0535	26.3672	60.0712	26.3672	57.2757	26.3672	59.2838	26.3672	56.4279	26.3672	58.2316	26.3672	55.524	26.3672	56.9795	26.3672	54.5938	26.3672	55.743	26.3672	53.6963	26.3672	54.9268	26.3672	52.9335	26.3672	54.8498	26.3672	52.4458	26.3672	55.3474	26.3672	52.3584	26.3672	55.9879	26.3672	52.6959	26.3672	56.4735	26.3672	53.3549	26.3672	56.6898	26.3672	54.1716	26.3672	56.6194	26.3672	54.9978	26.3672	56.2851	26.3672	55.7268
27.832	60.8697	27.832	60.5555	27.832	61.1017	27.832	60.1749	27.832	61.2355	27.832	59.7435	27.832	61.2565	27.832	59.2778	27.832	61.1551	27.832	58.7956	27.832	60.9327	27.832	58.3185	27.832	60.6112	27.832	57.8723	27.832	60.2432	27.832	57.4875	27.832	59.9138	27.832	57.1976	27.832	59.7187	27.832	57.0335	27.832	59.7147	27.832	57.0169	27.832	59.8785	27.832	57.1536	27.832	60.1224	27.832	57.4305	27.832	60.3465	27.832	57.8191	27.832	60.4778	27.832	58.2814	27.832	60.4792	27.832	58.7765	27.832	60.3427	27.832	59.265	27.832	60.079	27.832	59.7102
29.2969	57.9167	29.2969	57.5479	29.2969	58.2017	29.2969	57.116	29.2969	58.3881	29.2969	56.6469	29.2969	58.4701	29.2969	56.1739	29.2969	58.4588	29.2969	55.7393	29.2969	58.3938	29.2969	55.3938	29.2969	58.3529	29.2969	55.1919	29.2969	58.4429	29.2969	55.179	29.2969	58.7521	29.2969	55.3765	29.2969	59.286	29.2969	55.7739	29.2969	59.9556	29.2969	56.3329	29.2969	60.6334	29.2969	57.0026	29.2969	61.2135	29.2969	57.7327	29.2969	61.6325	29.2969	58.4807	29.2969	61.8644	29.2969	59.2129	29.2969	61.9073	29.2969	59.9022	29.2969	61.774	29.2969	60.5254	29.2969	61.484	29.2969	61.0601
30.7617	53.8443	30.7617	53.3667	30.7617	54.2692	30.7617	52.8723	30.7617	54.6371	30.7617	52.4278	30.7617	54.9799	30.7617	52.1263	30.7617	55.3708	30.7617	52.0679	30.7617	55.9135	30.7617	52.3201	30.7617	56.6938	30.7617	52.8811	30.7617	57.7142	30.7617	53.6846	30.7617	58.8804	30.7617	54.6382	30.7617	60.0564	30.7617	55.6604	30.7617	61.1256	30.7617	56.6939	30.7617	62.0144	30.7617	57.7033	30.7617	62.6867	30.7617	58.6683	30.7617	63.1329	30.7617	59.576	30.7617	63.3593	30.7617	60.4173	30.7617	63.3816	30.7617	61.1829	30.7617	63.2208	30.7617	61.8616	30.7617	62.8993	30.7617	62.4395
32.2266	52.2628	32.2266	51.9522	32.2266	52.8069	32.2266	51.9033	32.2266	53.5635	32.2266	52.1316	32.2266	54.5219	32.2266	52.6199	32.2266	55.6669	32.2266	53.3183	32.2266	56.9601	32.2266	54.1608	32.2266	58.3351	32.2266	55.0855	32.2266	59.7106	32.2266	56.0451	32.2266	61.009	32.2266	57.0079	32.2266	62.169	32.2266	57.9542	32.2266	63.149	32.2266	58.8728	32.2266	63.9258	32.2266	59.7567	32.2266	64.4907	32.2266	60.6014	32.2266	64.8464	32.2266	61.4023	32.2266	65.0034	32.2266	62.1538	32.2266	64.9785	32.2266	62.8481	32.2266	64.7917	32.2266	63.4745	32.2266	64.4648	32.2266	64.0191
33.6914	56.5313	33.6914	56.4021	33.6914	56.8886	33.6914	56.4797	33.6914	57.4752	33.6914	56.7304	33.6914	58.2691	33.6914	57.1164	33.6914	59.2275	33.6914	57.6023	33.6914	60.2938	33.6914	58.1584	33.6914	61.4049	33.6914	58.7619	33.6914	62.4997	33.6914	59.3958	33.6914	63.5239	33.6914	60.0477	33.6914	64.4341	33.6914	60.7088	33.6914	65.1984	33.6914	61.3722	33.6914	65.7971	33.6914	62.0325	33.6914	66.2211	33.6914	62.6843	33.6914	66.4708	33.6914	63.3218	33.6914	66.5541	33.6914	63.9377	33.6914	66.4849	33.6914	64.523	33.6914	66.2813	33.6914	65.0659	33.6914	65.9634	33.6914	65.5518
35.1562	61.1125	35.1562	60.9352	35.1562	61.4231	35.1562	60.8824	35.1562	61.8678	35.1562	60.9406	35.1562	62.4374	35.1562	61.0943	35.1562	63.1114	35.1562	61.3282	35.1562	63.8595	35.1562	61.6283	35.1562	64.6444	35.1562	61.9825	35.1562	65.4254	35.1562	62.3808	35.1562	66.1631	35.1562	62.8148	35.1562	66.8222	35.1562	63.2774	35.1562	67.3746	35.1562	63.7627	35.1562	67.8005	35.1562	64.2646	35.1562	68.0888	35.1562	64.7775	35.1562	68.2371	35.1562	65.2946	35.1562	68.2502	35.1562	65.8084	35.1562	68.1391	35.1562	66.3093	35.1562	67.919	35.1562	66.7859	35.1562	67.6078	35.1562	67.2242
36.6211	64.7634	36.6211	64.5771	36.6211	65.0153	36.6211	64.453	36.6211	65.3341	36.6211	64.3869	36.6211	65.7172	36.6211	64.3745	36.6211	66.1571	36.6211	64.4119	36.6211	66.6402	36.6211	64.4958	36.6211	67.1466	36.6211	64.6234	36.6211	67.6522	36.6211	64.7927	36.6211	68.1301	36.6211	65.0018	36.6211	68.5539	36.6211	65.2489	36.6211	68.9007	36.6211	65.5322	36.6211	69.1524	36.6211	65.8494	36.6211	69.2982	36.6211	66.1973	36.6211	69.3343	36.6211	66.5713	36.6211	69.2641	36.6211	66.9652	36.6211	69.0969	36.6211	67.3705	36.6211	68.847	36.6211	67.7763	36.6211	68.5315	36.6211	68.1686
38.0859	66.9107	38.0859	66.7275	38.0859	67.1685	38.0859	66.6168	38.0859	67.4998	38.0859	66.5737	38.0859	67.898	38.0859	66.5926	38.0859	68.351	38.0859	66.6676	38.0859	68.8414	38.0859	66.7931	38.0859	69.3473	38.0859	66.9639	38.0859	69.8446	38.0859	67.1755	38.0859	70.3093	38.0859	67.4237	38.0859	70.719	38.0859	67.7047	38.0859	71.0552	38.0859	68.0145	38.0859	71.3041	38.0859	68.3492	38.0859	71.4572	38.0859	68.7043	38.0859	71.5119	38.0859	69.0744	38.0859	71.4712	38.0859	69.4532	38.0859	71.3426	38.0859	69.8327	38.0859	71.1375	38.0859	70.2033	38.0859	70.8695	38.0859	70.5533
39.5508	69.745	39.5508	69.5137	39.5508	70.0368	39.5508	69.3437	39.5508	70.385	39.5508	69.2341	39.5508	70.7824	39.5508	69.1823	39.5508	71.2179	39.5508	69.1846	39.5508	71.6767	39.5508	69.2372	39.5508	72.1403	39.5508	69.3363	39.5508	72.5878	39.5508	69.4781	39.5508	72.997	39.5508	69.6596	39.5508	73.3465	39.5508	69.8778	39.5508	73.6173	39.5508	70.1301	39.5508	73.7956	39.5508	70.4141	39.5508	73.8732	39.5508	70.7269	39.5508	73.849	39.5508	71.0652	39.5508	73.7284	39.5508	71.4249	39.5508	73.5229	39.5508	71.7998	39.5508	73.2478	39.5508	72.1819	39.5508	72.921	39.5508	72.5602
41.0156	71.7483	41.0156	71.4973	41.0156	72.046	41.0156	71.2964	41.0156	72.3841	41.0156	71.1466	41.0156	72.7536	41.0156	71.0474	41.0156	73.1421	41.0156	70.9969	41.0156	73.535	41.0156	70.9927	41.0156	73.9155	41.0156	71.0318	41.0156	74.2661	41.0156	71.1115	41.0156	74.5697	41.0156	71.2293	41.0156	74.8106	41.0156	71.3828	41.0156	74.9765	41.0156	71.5701	41.0156	75.0587	41.0156	71.7894	41.0156	75.054	41.0156	72.0388	41.0156	74.9644	41.0156	72.3163	41.0156	74.7973	41.0156	72.6188	41.0156	74.5644	41.0156	72.942	41.0156	74.2805	41.0156	73.2798	41.0156	73.9616	41.0156	73.6234
42.4805	73.3834	42.4805	73.1166	42.4805	73.6858	42.4805	72.8904	42.4805	74.0164	42.4805	72.7076	42.4805	74.3656	42.4805	72.5695	42.4805	74.7213	42.4805	72.4758	42.4805	75.0697	42.4805	72.4255	42.4805	75.396	42.4805	72.417	42.4805	75.6853	42.4805	72.4485	42.4805	75.9233	42.4805	72.5183	42.4805	76.0976	42.4805	72.6247	42.4805	76.1986	42.4805	72.7664	42.4805	76.2205	42.4805	72.9422	42.4805	76.1622	42.4805	73.151	42.4805	76.0273	42.4805	73.3914	42.4805	75.8241	42.4805	73.6613	42.4805	75.5652	42.4805	73.9576	42.4805	75.2654	42.4805	74.2751	42.4805	74.9407	42.4805	74.6062
43.9453	74.7259	43.9453	74.4598	43.9453	75.0205	43.9453	74.228	43.9453	75.3356	43.9453	74.034	43.9453	75.6614	43.9453	73.88	43.9453	75.9861	43.9453	73.7666	43.9453	76.2969	43.9453	73.6933	43.9453	76.5805	43.9453	73.6592	43.9453	76.8238	43.9453	73.663	43.9453	77.015	43.9453	73.7034	43.9453	77.1439	43.9453	73.7792	43.9453	77.203	43.9453	73.8893	43.9453	77.1886	43.9453	74.0331	43.9453	77.1006	43.9453	74.2098	43.9453	76.9437	43.9453	74.4188	43.9453	76.7267	43.9453	74.6586	43.9453	76.462	43.9453	74.9269	43.9453	76.1643	43.9453	75.2195	43.9453	75.8488	43.9453	75.5299
45.4102	75.9033	45.4102	75.6341	45.4102	76.1954	45.4102	75.3941	45.4102	76.5021	45.4102	75.1877	45.4102	76.8131	45.4102	75.0176	45.4102	77.1166	45.4102	74.8851	45.4102	77.4001	45.4102	74.7904	45.4102	77.6507	45.4102	74.733	45.4102	77.8564	45.4102	74.712	45.4102	78.0066	45.4102	74.7264	45.4102	78.0932	45.4102	74.7753	45.4102	78.1108	45.4102	74.8579	45.4102	78.0578	45.4102	74.9738	45.4102	77.9363	45.4102	75.1226	45.4102	77.7525	45.4102	75.3041	45.4102	77.5166	45.4102	75.5174	45.4102	77.2414	45.4102	75.7611	45.4102	76.9415	45.4102	76.032	45.4102	76.6315	45.4102	76.3248
46.875	76.9949	46.875	76.7182	46.875	77.2892	46.875	76.4663	46.875	77.5921	46.875	76.2444	46.875	77.8925	46.875	76.0558	46.875	78.1782	46.875	75.9023	46.875	78.4362	46.875	75.7848	46.875	78.6543	46.875	75.703	46.875	78.8214	46.875	75.6567	46.875	78.9287	46.875	75.645	46.875	78.9703	46.875	75.6673	46.875	78.9434	46.875	75.7232	46.875	78.8487	46.875	75.8124	46.875	78.6907	46.875	75.9348	46.875	78.4774	46.875	76.0904	46.875	78.2203	46.875	76.279	46.875	77.9327	46.875	76.4998	46.875	77.629	46.875	76.7505	46.875	77.3231	46.875	77.0272
48.3398	77.9217	48.3398	77.6448	48.3398	78.2113	48.3398	77.3881	48.3398	78.5041	48.3398	77.1574	48.3398	78.7889	48.3398	76.9564	48.3398	79.0534	48.3398	76.7875	48.3398	79.2851	48.3398	76.6519	48.3398	79.4725	48.3398	76.5498	48.3398	79.6056	48.3398	76.4813	48.3398	79.6769	48.3398	76.4457	48.3398	79.6819	48.3398	76.4429	48.3398	79.6195	48.3398	76.4726	48.3398	79.4921	48.3398	76.5349	48.3398	79.3057	48.3398	76.6301	48.3398	79.0696	48.3398	76.7589	48.3398	78.7961	48.3398	76.9218	48.3398	78.4993	48.3398	77.1187	48.3398	78.1938	48.3398	77.3486	48.3398	77.893	48.3398	77.6085
51.2695	78.9324	51.2695	78.664	51.2695	79.2122	51.2695	78.4145	51.2695	79.4938	51.2695	78.1894	51.2695	79.7659	51.2695	77.9924	51.2695	80.0159	51.2695	77.8256	51.2695	80.2314	51.2695	77.6901	51.2695	80.4006	51.2695	77.5859	51.2695	80.5138	51.2695	77.5128	51.2695	80.5644	51.2695	77.4703	51.2695	80.549	51.2695	77.4579	51.2695	80.4679	51.2695	77.4755	51.2695	80.3251	51.2695	77.5233	51.2695	80.1279	51.2695	77.6018	51.2695	79.8867	51.2695	77.7119	51.2695	79.6139	51.2695	77.8546	51.2695	79.3236	51.2695	78.0304	51.2695	79.0296	51.2695	78.2391	51.2695	78.7445	51.2695	78.4785
52.7344	79.3467	52.7344	79.0748	52.7344	79.6282	52.7344	78.8206	52.7344	79.9092	52.7344	78.5903	52.7344	80.1776	52.7344	78.3878	52.7344	80.4205	52.7344	78.2157	52.7344	80.6251	52.7344	78.075	52.7344	80.7797	52.7344	77.9659	52.7344	80.8751	52.7344	77.8879	52.7344	80.9054	52.7344	77.8404	52.7344	80.8686	52.7344	77.8226	52.7344	80.7664	52.7344	77.834	52.7344	80.6046	52.7344	77.8745	52.7344	80.3921	52.7344	77.9445	52.7344	80.1404	52.7344	78.0444	52.7344	79.863	52.7344	78.1753	52.7344	79.5737	52.7344	78.338	52.7344	79.2859	52.7344	78.5326	52.7344	79.0111	52.7344	78.758
54.1992	79.721	54.1992	79.4479	54.1992	80.0014	54.1992	79.1907	54.1992	80.2786	54.1992	78.9557	54.1992	80.5405	54.1992	78.7475	54.1992	80.7742	54.1992	78.5688	54.1992	80.9669	54.1992	78.421	54.1992	81.1073	54.1992	78.3044	54.1992	81.1869	54.1992	78.2187	54.1992	81.2004	54.1992	78.1632	54.1992	81.1465	54.1992	78.1371	54.1992	81.028	54.1992	78.1399	54.1992	80.8514	54.1992	78.1713	54.1992	80.6266	54.1992	78.2315	54.1992	80.3657	54.1992	78.3212	54.1992	80.0828	54.1992	78.4414	54.1992	79.792	54.1992	78.5931	54.1992	79.5065	54.1992	78.7769	54.1992	79.2373	54.1992	78.9924
55.6641	80.0722	55.6641	79.7973	55.6641	80.3508	55.6641	79.5352	55.6641	80.6226	55.6641	79.2926	55.6641	80.8752	55.6641	79.0743	55.6641	81.0957	55.6641	78.8837	55.6641	81.2716	55.6641	78.7223	55.6641	81.3922	55.6641	78.591	55.6641	81.4492	55.6641	78.4898	55.6641	81.4383	55.6641	78.4181	55.6641	81.3593	55.6641	78.3754	55.6641	81.2161	55.6641	78.3613	55.6641	81.0163	55.6641	78.3757	55.6641	80.7709	55.6641	78.419	55.6641	80.4934	55.6641	78.4922	55.6641	80.1984	55.6641	78.5964	55.6641	79.9005	55.6641	78.7333	55.6641	79.6132	55.6641	78.9041	55.6641	79.3469	55.6641	79.1092
58.5938	80.4515	58.5938	80.1805	58.5938	80.7239	58.5938	79.9199	58.5938	80.9869	58.5938	79.6765	58.5938	81.2283	58.5938	79.4552	58.5938	81.4348	58.5938	79.2592	58.5938	81.5939	58.5938	79.0903	58.5938	81.6949	58.5938	78.9495	58.5938	81.7298	58.5938	78.8367	58.5938	81.6951	58.5938	78.7517	58.5938	81.5914	58.5938	78.6941	58.5938	81.424	58.5938	78.6636	58.5938	81.2021	58.5938	78.6603	58.5938	80.9382	58.5938	78.6849	58.5938	80.6471	58.5938	78.7386	58.5938	80.3443	58.5938	78.8231	58.5938	80.0448	58.5938	78.9404	58.5938	79.7618	58.5938	79.0926	58.5938	79.505	58.5938	79.281
60.0586	80.5603	60.0586	80.2869	60.0586	80.8343	60.0586	80.0235	60.0586	81.0978	60.0586	79.7772	60.0586	81.3381	60.0586	79.5532	60.0586	81.5416	60.0586	79.3547	60.0586	81.6957	60.0586	79.1838	60.0586	81.7896	60.0586	79.0411	60.0586	81.8156	60.0586	78.9267	60.0586	81.7706	60.0586	78.8403	60.0586	81.6561	60.0586	78.7811	60.0586	81.4783	60.0586	78.7488	60.0586	81.2472	60.0586	78.7432	60.0586	80.9764	60.0586	78.7649	60.0586	80.6812	60.0586	78.8148	60.0586	80.3774	60.0586	78.8946	60.0586	80.0799	60.0586	79.0062	60.0586	79.8012	60.0586	79.1519	60.0586	79.5505	60.0586	79.3333
62.9883	80.7635	62.9883	80.4827	62.9883	81.0404	62.9883	80.208	62.9883	81.3016	62.9883	79.9471	62.9883	81.5339	62.9883	79.7057	62.9883	81.7233	62.9883	79.4879	62.9883	81.8569	62.9883	79.296	62.9883	81.9239	62.9883	79.1314	62.9883	81.9174	62.9883	78.9946	62.9883	81.8351	62.9883	78.8854	62.9883	81.6803	62.9883	78.8035	62.9883	81.4613	62.9883	78.7486	62.9883	81.191	62.9883	78.7208	62.9883	80.8853	62.9883	78.7204	62.9883	80.5618	62.9883	78.7488	62.9883	80.2379	62.9883	78.8078	62.9883	79.9291	62.9883	78.8998	62.9883	79.6475	62.9883	79.0278	62.9883	79.4013	62.9883	79.1945
64.4531	81.3015	64.4531	81.0103	64.4531	81.5884	64.4531	80.7249	64.4531	81.8591	64.4531	80.4528	64.4531	82.0995	64.4531	80.1998	64.4531	82.2947	64.4531	79.9695	64.4531	82.4302	64.4531	79.7643	64.4531	82.4932	64.4531	79.5852	64.4531	82.4751	64.4531	79.4326	64.4531	82.3721	64.4531	79.3063	64.4531	82.1869	64.4531	79.206	64.4531	81.9285	64.4531	79.1313	64.4531	81.6122	64.4531	79.0824	64.4531	81.2576	64.4531	79.06	64.4531	80.8873	64.4531	79.0657	64.4531	80.5234	64.4531	79.1021	64.4531	80.1852	64.4531	79.1728	64.4531	79.8869	64.4531	79.2822	64.4531	79.6362	64.4531	79.4352
67.3828	81.4634	67.3828	81.1774	67.3828	81.7471	67.3828	80.8985	67.3828	82.0167	67.3828	80.634	67.3828	82.2585	67.3828	80.3891	67.3828	82.4577	67.3828	80.167	67.3828	82.5996	67.3828	79.9695	67.3828	82.6712	67.3828	79.7976	67.3828	82.6633	67.3828	79.6511	67.3828	82.5715	67.3828	79.5296	67.3828	82.3975	67.3828	79.4329	67.3828	82.1498	67.3828	79.3606	67.3828	81.8426	67.3828	79.3132	67.3828	81.4951	67.3828	79.2917	67.3828	81.1294	67.3828	79.2979	67.3828	80.7676	67.3828	79.3349	67.3828	80.4294	67.3828	79.4065	67.3828	80.1294	67.3828	79.5175	67.3828	79.8763	67.3828	79.6728
68.8477	81.5112	68.8477	81.2258	68.8477	81.795	68.8477	80.9484	68.8477	82.0652	68.8477	80.6865	68.8477	82.3079	68.8477	80.4451	68.8477	82.5082	68.8477	80.2275	68.8477	82.6513	68.8477	80.0357	68.8477	82.7243	68.8477	79.87	68.8477	82.718	68.8477	79.7303	68.8477	82.6284	68.8477	79.616	68.8477	82.4575	68.8477	79.5263	68.8477	82.2139	68.8477	79.4609	68.8477	81.9119	68.8477	79.4197	68.8477	81.5709	68.8477	79.4035	68.8477	81.2125	68.8477	79.414	68.8477	80.8586	68.8477	79.4538	68.8477	80.5283	68.8477	79.5266	68.8477	80.2356	68.8477	79.637	68.8477	79.9886	68.8477	79.7896
71.7773	81.6039	71.7773	81.3188	71.7773	81.8863	71.7773	81.041	71.7773	82.1537	71.7773	80.7783	71.7773	82.3918	71.7773	80.5364	71.7773	82.5857	71.7773	80.3188	71.7773	82.7207	71.7773	80.1274	71.7773	82.7844	71.7773	79.963	71.7773	82.7682	71.7773	79.8252	71.7773	82.6689	71.7773	79.7133	71.7773	82.4898	71.7773	79.6263	71.7773	82.2405	71.7773	79.5634	71.7773	81.9363	71.7773	79.5245	71.7773	81.597	71.7773	79.5098	71.7773	81.2446	71.7773	79.5205	71.7773	80.9001	71.7773	79.559	71.7773	80.5815	71.7773	79.6285	71.7773	80.3014	71.7773	79.7332	71.7773	80.0663	71.7773	79.8777
74.707	81.7005	74.707	81.4133	74.707	81.9835	74.707	81.1327	74.707	82.2498	74.707	80.8666	74.707	82.485	74.707	80.6211	74.707	82.6737	74.707	80.4	74.707	82.8013	74.707	80.2055	74.707	82.8553	74.707	80.0383	74.707	82.8277	74.707	79.8982	74.707	82.7157	74.707	79.7841	74.707	82.5235	74.707	79.6951	74.707	82.2618	74.707	79.6301	74.707	81.9473	74.707	79.5885	74.707	81.6009	74.707	79.5706	74.707	81.245	74.707	79.5772	74.707	80.9012	74.707	79.6105	74.707	80.5868	74.707	79.6737	74.707	80.3136	74.707	79.7709	74.707	80.0869	74.707	79.9071
77.6367	81.787	77.6367	81.4998	77.6367	82.0685	77.6367	81.2177	77.6367	82.3313	77.6367	80.9491	77.6367	82.5608	77.6367	80.7002	77.6367	82.7418	77.6367	80.4753	77.6367	82.8596	77.6367	80.2766	77.6367	82.902	77.6367	80.105	77.6367	82.8613	77.6367	79.9602	77.6367	82.7356	77.6367	79.8412	77.6367	82.5299	77.6367	79.747	77.6367	82.2558	77.6367	79.6764	77.6367	81.9311	77.6367	79.6289	77.6367	81.5773	77.6367	79.6044	77.6367	81.2175	77.6367	79.604	77.6367	80.8733	77.6367	79.6299	77.6367	80.5617	77.6367	79.6851	77.6367	80.2938	77.6367	79.7742	77.6367	80.0741	77.6367	79.9021
79.1016	81.8487	79.1016	81.5632	79.1016	82.1275	79.1016	81.2817	79.1016	82.3864	79.1016	81.013	79.1016	82.6108	79.1016	80.7634	79.1016	82.7854	79.1016	80.5372	79.1016	82.8957	79.1016	80.3368	79.1016	82.9298	79.1016	80.1631	79.1016	82.8803	79.1016	80.0159	79.1016	82.7459	79.1016	79.8942	79.1016	82.5322	79.1016	79.7968	79.1016	82.2515	79.1016	79.7226	79.1016	81.922	79.1016	79.6709	79.1016	81.5658	79.1016	79.642	79.1016	81.206	79.1016	79.6368	79.1016	80.8639	79.1016	79.6574	79.1016	80.556	79.1016	79.7072	79.1016	80.293	79.1016	79.7905	79.1016	80.0788	79.1016	79.9127
82.0312	81.939	82.0312	81.6539	82.0312	82.2164	82.0312	81.3725	82.0312	82.4727	82.0312	81.1039	82.0312	82.6929	82.0312	80.8548	82.0312	82.8617	82.0312	80.6298	82.0312	82.9647	82.0312	80.4314	82.0312	82.9903	82.0312	80.2606	82.0312	82.9319	82.0312	80.1169	82.0312	82.7892	82.0312	79.9991	82.0312	82.5691	82.0312	79.9057	82.0312	82.2852	82.0312	79.8351	82.0312	81.9565	82.0312	79.7866	82.0312	81.6055	82.0312	79.7597	82.0312	81.2549	82.0312	79.7554	82.0312	80.9245	82.0312	79.7756	82.0312	80.6296	82.0312	79.8232	82.0312	80.379	82.0312	79.9024	82.0312	80.1757	82.0312	80.0182
84.9609	81.9278	84.9609	81.6285	84.9609	82.2183	84.9609	81.3327	84.9609	82.4861	84.9609	81.0504	84.9609	82.7161	84.9609	80.7893	84.9609	82.8926	84.9609	80.5551	84.9609	83.0011	84.9609	80.3512	84.9609	83.0303	84.9609	80.1793	84.9609	82.9739	84.9609	80.0392	84.9609	82.8323	84.9609	79.9296	84.9609	82.6133	84.9609	79.8487	84.9609	82.3318	84.9609	79.7944	84.9609	82.0078	84.9609	79.7649	84.9609	81.664	84.9609	79.7589	84.9609	81.3226	84.9609	79.7761	84.9609	81.0022	84.9609	79.817	84.9609	80.7158	84.9609	79.8832	84.9609	80.4703	84.9609	79.9778	84.9609	80.2672	84.9609	80.1043
87.8906	82.1593	87.8906	81.8446	87.8906	82.461	87.8906	81.5295	87.8906	82.7353	87.8906	81.2247	87.8906	82.9669	87.8906	80.9394	87.8906	83.1402	87.8906	80.6802	87.8906	83.2414	87.8906	80.4523	87.8906	83.2599	87.8906	80.2586	87.8906	83.1904	87.8906	80.1006	87.8906	83.035	87.8906	79.9781	87.8906	82.803	87.8906	79.8902	87.8906	82.5106	87.8906	79.8351	87.8906	82.179	87.8906	79.8109	87.8906	81.8312	87.8906	79.8157	87.8906	81.4887	87.8906	79.848	87.8906	81.1685	87.8906	79.9069	87.8906	80.8815	87.8906	79.9922	87.8906	80.6327	87.8906	80.1051	87.8906	80.4221	87.8906	80.2474
90.8203	82.4379	90.8203	82.1296	90.8203	82.7291	90.8203	81.8164	90.8203	82.9892	90.8203	81.509	90.8203	83.2031	90.8203	81.2161	90.8203	83.3557	90.8203	80.9447	90.8203	83.433	90.8203	80.7001	90.8203	83.4248	90.8203	80.4858	90.8203	83.3264	90.8203	80.304	90.8203	83.1406	90.8203	80.1554	90.8203	82.8782	90.8203	80.0401	90.8203	82.5576	90.8203	79.9575	90.8203	82.2018	90.8203	79.9068	90.8203	81.8354	90.8203	79.8869	90.8203	81.4802	90.8203	79.897	90.8203	81.1528	90.8203	79.9369	90.8203	80.8633	90.8203	80.0065	90.8203	80.6152	90.8203	80.107	90.8203	80.4084	90.8203	80.24
95.2148	82.7484	95.2148	82.4349	95.2148	83.043	95.2148	82.115	95.2148	83.3045	95.2148	81.7994	95.2148	83.5174	95.2148	81.4969	95.2148	83.6658	95.2148	81.2147	95.2148	83.7345	95.2148	80.9581	95.2148	83.7117	95.2148	80.7308	95.2148	83.5916	95.2148	80.535	95.2148	83.3767	95.2148	80.3718	95.2148	83.0787	95.2148	80.2412	95.2148	82.7187	95.2148	80.1428	95.2148	82.324	95.2148	80.076	95.2148	81.9238	95.2148	80.0398	95.2148	81.5441	95.2148	80.0337	95.2148	81.2031	95.2148	80.0575	95.2148	80.9103	95.2148	80.1115	95.2148	80.6671	95.2148	80.1966	95.2148	80.4704	95.2148	80.3151
98.1445	82.8234	98.1445	82.5099	98.1445	83.1163	98.1445	82.1886	98.1445	83.3744	98.1445	81.8702	98.1445	83.582	98.1445	81.5639	98.1445	83.7229	98.1445	81.2768	98.1445	83.7821	98.1445	81.0146	98.1445	83.7481	98.1445	80.7812	98.1445	83.6157	98.1445	80.5791	98.1445	83.3884	98.1445	80.4096	98.1445	83.0798	98.1445	80.2732	98.1445	82.7124	98.1445	80.1698	98.1445	82.3149	98.1445	80.099	98.1445	81.9167	98.1445	80.0601	98.1445	81.5425	98.1445	80.0526	98.1445	81.2087	98.1445	80.0761	98.1445	80.9227	98.1445	80.1306	98.1445	80.6845	98.1445	80.2167	98.1445	80.4903	98.1445	80.3357
101.074	82.9075	101.074	82.5937	101.074	83.1987	101.074	82.2704	101.074	83.4527	101.074	81.9486	101.074	83.6535	101.074	81.6376	101.074	83.7844	101.074	81.3446	101.074	83.8299	101.074	81.0753	101.074	83.7784	101.074	80.8337	101.074	83.6249	101.074	80.6223	101.074	83.3741	101.074	80.4425	101.074	83.0414	101.074	80.295	101.074	82.6521	101.074	80.18	101.074	82.2377	101.074	80.0972	101.074	81.8295	101.074	80.0467	101.074	81.4524	101.074	80.0281	101.074	81.1215	101.074	80.0416	101.074	80.8416	101.074	80.0871	101.074	80.6107	101.074	80.1651	101.074	80.424	101.074	80.2767
105.469	83.0393	105.469	82.7182	105.469	83.3359	105.469	82.3858	105.469	83.5928	105.469	82.0535	105.469	83.793	105.469	81.7308	105.469	83.919	105.469	81.4253	105.469	83.9545	105.469	81.1426	105.469	83.8867	105.469	80.887	105.469	83.7103	105.469	80.6611	105.469	83.4302	105.469	80.4665	105.469	83.0633	105.469	80.3042	105.469	82.6381	105.469	80.1745	105.469	82.19	105.469	80.0777	105.469	81.7545	105.469	80.0137	105.469	81.3594	105.469	79.9826	105.469	81.0197	105.469	79.9846	105.469	80.7385	105.469	80.0197	105.469	80.5113	105.469	80.0883	105.469	80.331	105.469	80.1914
108.398	83.0221	108.398	82.698	108.398	83.3226	108.398	82.3635	108.398	83.5841	108.398	82.0302	108.398	83.7899	108.398	81.7074	108.398	83.9224	108.398	81.4025	108.398	83.9652	108.398	81.1213	108.398	83.9056	108.398	80.8676	108.398	83.7379	108.398	80.644	108.398	83.4663	108.398	80.452	108.398	83.1072	108.398	80.2926	108.398	82.6882	108.398	80.166	108.398	82.244	108.398	80.0727	108.398	81.8099	108.398	80.0128	108.398	81.4138	108.398	79.9865	108.398	81.0712	108.398	79.9939	108.398	80.7857	108.398	80.0352	108.398	80.5531	108.398	80.1104	108.398	80.3666	108.398	80.2203
112.793	82.9586	112.793	82.6435	112.793	83.2481	112.793	82.3166	112.793	83.4969	112.793	81.9899	112.793	83.6886	112.793	81.6737	112.793	83.8068	112.793	81.3759	112.793	83.8368	112.793	81.1028	112.793	83.768	112.793	80.8585	112.793	83.5974	112.793	80.6454	112.793	83.3318	112.793	80.4649	112.793	82.9894	112.793	80.3175	112.793	82.5979	112.793	80.2031	112.793	82.1898	112.793	80.1218	112.793	81.7956	112.793	80.0734	112.793	81.4373	112.793	80.0578	112.793	81.1259	112.793	80.0747	112.793	80.8628	112.793	80.124	112.793	80.6438	112.793	80.2052	112.793	80.4636	112.793	80.3182
117.188	82.9968	117.188	82.6805	117.188	83.2808	117.188	82.3479	117.188	83.5152	117.188	82.0135	117.188	83.6824	117.188	81.6898	117.188	83.7651	117.188	81.3872	117.188	83.749	117.188	81.1135	117.188	83.6256	117.188	80.8739	117.188	83.3965	117.188	80.6711	117.188	83.0763	117.188	80.5058	117.188	82.6934	117.188	80.3771	117.188	82.2857	117.188	80.2831	117.188	81.8918	117.188	80.2215	117.188	81.541	117.188	80.1899	117.188	81.2466	117.188	80.1861	117.188	81.0073	117.188	80.208	117.188	80.8134	117.188	80.2538	117.188	80.6543	117.188	80.322	117.188	80.5217	117.188	80.4114
120.117	83.4983	120.117	83.1591	120.117	83.799	120.117	82.7974	120.117	84.044	120.117	82.4283	120.117	84.2157	120.117	82.0654	120.117	84.2969	120.117	81.7211	120.117	84.2729	120.117	81.4056	120.117	84.1348	120.117	81.127	120.117	83.8837	120.117	80.8912	120.117	83.5343	120.117	80.7015	120.117	83.1167	120.117	80.559	120.117	82.6726	120.117	80.4626	120.117	82.2469	120.117	80.4096	120.117	81.8743	120.117	80.396	120.117	81.5706	120.117	80.4167	120.117	81.3322	120.117	80.4664	120.117	81.1444	120.117	80.5397	120.117	80.9902	120.117	80.6315	120.117	80.8569	120.117	80.7378
124.512	83.7495	124.512	83.4216	124.512	84.0381	124.512	83.0693	124.512	84.2715	124.512	82.7064	124.512	84.4329	124.512	82.3453	124.512	84.5055	124.512	81.9974	124.512	84.4746	124.512	81.6723	124.512	84.3309	124.512	81.3784	124.512	84.0752	124.512	81.1224	124.512	83.723	124.512	80.9095	124.512	83.3062	124.512	80.7436	124.512	82.8691	124.512	80.6267	124.512	82.458	124.512	80.5592	124.512	82.1058	124.512	80.5393	124.512	81.8232	124.512	80.5633	124.512	81.6006	124.512	80.6257	124.512	81.4185	124.512	80.7192	124.512	81.2587	124.512	80.8358	124.512	81.1097	124.512	80.968
128.906	83.8356	128.906	83.4942	128.906	84.1352	128.906	83.1262	128.906	84.3762	128.906	82.7459	128.906	84.5408	128.906	82.3664	128.906	84.6108	128.906	81.9996	128.906	84.5697	128.906	81.6561	128.906	84.4065	128.906	81.3452	128.906	84.1209	128.906	81.0745	128.906	83.7292	128.906	80.8501	128.906	83.267	128.906	80.6761	128.906	82.7862	128.906	80.5548	128.906	82.3415	128.906	80.4862	128.906	81.9726	128.906	80.468	128.906	81.6904	128.906	80.4955	128.906	81.4802	128.906	80.5616	128.906	81.3157	128.906	80.6578	128.906	81.1728	128.906	80.7748	128.906	81.037	128.906	80.9035
133.301	83.948	133.301	83.6044	133.301	84.2462	133.301	83.2303	133.301	84.4829	133.301	82.8386	133.301	84.64	133.301	82.4413	133.301	84.6985	133.301	82.0493	133.301	84.6405	133.301	81.6724	133.301	84.453	133.301	81.32	133.301	84.1337	133.301	81.0006	133.301	83.6972	133.301	80.7221	133.301	83.1789	133.301	80.4917	133.301	82.6334	133.301	80.3148	133.301	82.1215	133.301	80.1946	133.301	81.6904	133.301	80.1315	133.301	81.3569	133.301	80.1225	133.301	81.108	133.301	80.1614	133.301	80.9162	133.301	80.2392	133.301	80.7553	133.301	80.3459	133.301	80.609	133.301	80.4717
139.16	83.9887	139.16	83.6335	139.16	84.3006	139.16	83.2511	139.16	84.5513	139.16	82.8556	139.16	84.721	139.16	82.4594	139.16	84.7888	139.16	82.0729	139.16	84.7351	139.16	81.705	139.16	84.5454	139.16	81.3632	139.16	84.2174	139.16	81.0541	139.16	83.7682	139.16	80.7841	139.16	83.2389	139.16	80.5589	139.16	82.6919	139.16	80.3842	139.16	82.1939	139.16	80.2643	139.16	81.7906	139.16	80.2016	139.16	81.4894	139.16	80.1952	139.16	81.2658	139.16	80.241	139.16	81.0849	139.16	80.3312	139.16	80.9201	139.16	80.4554	139.16	80.759	139.16	80.6016
143.555	84.0704	143.555	83.6948	143.555	84.3958	143.555	83.2857	143.555	84.6528	143.555	82.8585	143.555	84.8213	143.555	82.4271	143.555	84.8805	143.555	82.004	143.555	84.8101	143.555	81.6005	143.555	84.5954	143.555	81.2262	143.555	84.2333	143.555	80.8894	143.555	83.7405	143.555	80.5972	143.555	83.1594	143.555	80.3555	143.555	82.5563	143.555	80.1688	143.555	82.0051	143.555	80.04	143.555	81.5591	143.555	79.9698	143.555	81.2297	143.555	79.9562	143.555	80.9912	143.555	79.9942	143.555	80.8051	143.555	80.0763	143.555	80.6406	143.555	80.1924	143.555	80.4832	143.555	80.3315
147.949	84.2176	147.949	83.8359	147.949	84.5431	147.949	83.4137	147.949	84.7949	147.949	82.966	147.949	84.9535	147.949	82.5066	147.949	84.9977	147.949	82.0495	147.949	84.9065	147.949	81.6083	147.949	84.6642	147.949	81.1966	147.949	84.2675	147.949	80.8282	147.949	83.7364	147.949	80.516	147.949	83.1216	147.949	80.2714	147.949	82.5041	147.949	80.1027	147.949	81.973	147.949	80.0132	147.949	81.5858	147.949	80.0006	147.949	81.3415	147.949	80.0565	147.949	81.192	147.949	80.1678	147.949	81.0796	147.949	80.3179	147.949	80.9629	147.949	80.4887	147.949	80.8241	147.949	80.6626
153.809	84.5485	153.809	84.1968	153.809	84.8541	153.809	83.8128	153.809	85.0964	153.809	83.4073	153.809	85.254	153.809	82.9889	153.809	85.3019	153.809	82.5645	153.809	85.2131	153.809	82.1404	153.809	84.963	153.809	81.723	153.809	84.5371	153.809	81.3201	153.809	83.9414	153.809	80.9414	153.809	83.2153	153.809	80.5995	153.809	82.4396	153.809	80.3089	153.809	81.7259	153.809	80.0841	153.809	81.1751	153.809	79.9365	153.809	80.8232	153.809	79.8708	153.809	80.6295	153.809	79.8819	153.809	80.5184	153.809	79.9552	153.809	80.4267	153.809	80.0689	153.809	80.3218	153.809	80.1983
159.668	84.0592	159.668	83.6861	159.668	84.3963	159.668	83.2927	159.668	84.6795	159.668	82.8916	159.668	84.8878	159.668	82.4932	159.668	84.9977	159.668	82.105	159.668	84.9843	159.668	81.7323	159.668	84.8248	159.668	81.3792	159.668	84.504	159.668	81.0489	159.668	84.0225	159.668	80.745	159.668	83.4045	159.668	80.472	159.668	82.7035	159.668	80.2355	159.668	81.9975	159.668	80.0415	159.668	81.369	159.668	79.8958	159.668	80.8735	159.668	79.8016	159.668	80.5197	159.668	79.7589	159.668	80.2785	159.668	79.7633	159.668	80.1097	159.668	79.8074	159.668	79.9826	159.668	79.8824
165.527	83.8419	165.527	83.4134	165.527	84.2104	165.527	82.9454	165.527	84.4972	165.527	82.4578	165.527	84.6797	165.527	81.9693	165.527	84.7349	165.527	81.4972	165.527	84.642	165.527	81.0572	165.527	84.3881	165.527	80.6621	165.527	83.9768	165.527	80.3223	165.527	83.4375	165.527	80.0445	165.527	82.8303	165.527	79.8313	165.527	82.235	165.527	79.6816	165.527	81.7222	165.527	79.5914	165.527	81.3211	165.527	79.5542	165.527	81.0143	165.527	79.5633	165.527	80.764	165.527	79.6126	165.527	80.5399	165.527	79.6974	165.527	80.3299	165.527	79.8146	165.527	80.1352	165.527	79.9616
171.387	84.1794	171.387	83.7923	171.387	84.5065	171.387	83.36	171.387	84.7559	171.387	82.8942	171.387	84.9061	171.387	82.4047	171.387	84.9319	171.387	81.9003	171.387	84.8067	171.387	81.3901	171.387	84.5069	171.387	80.8856	171.387	84.0224	171.387	80.4027	171.387	83.372	171.387	79.9628	171.387	82.6215	171.387	79.5922	171.387	81.8904	171.387	79.3175	171.387	81.3175	171.387	79.1598	171.387	80.9805	171.387	79.1273	171.387	80.8423	171.387	79.2121	171.387	80.7945	171.387	79.3921	171.387	80.7381	171.387	79.6368	171.387	80.621	171.387	79.913	171.387	80.433	171.387	80.1885
177.246	84.263	177.246	83.8499	177.246	84.6203	177.246	83.3972	177.246	84.9026	177.246	82.9181	177.246	85.0876	177.246	82.4227	177.246	85.1489	177.246	81.9184	177.246	85.0564	177.246	81.4117	177.246	84.7794	177.246	80.9103	177.246	84.2939	177.246	80.4256	177.246	83.597	177.246	79.9752	177.246	82.7281	177.246	79.5826	177.246	81.7935	177.246	79.2749	177.246	80.9672	177.246	79.0767	177.246	80.4174	177.246	79.0022	177.246	80.1843	177.246	79.0487	177.246	80.1573	177.246	79.196	177.246	80.1845	177.246	79.4108	177.246	80.1652	177.246	79.6533	177.246	80.0627	177.246	79.883
183.105	84.2496	183.105	83.8629	183.105	84.5808	183.105	83.4364	183.105	84.8409	183.105	82.9845	183.105	85.0123	183.105	82.5197	183.105	85.0745	183.105	82.0509	183.105	85.0029	183.105	81.5841	183.105	84.7718	183.105	81.1238	183.105	84.3612	183.105	80.6764	183.105	83.7685	183.105	80.2537	183.105	83.0241	183.105	79.8745	183.105	82.2066	183.105	79.5635	183.105	81.4416	183.105	79.3468	183.105	80.8604	183.105	79.2437	183.105	80.5229	183.105	79.2585	183.105	80.3816	183.105	79.3767	183.105	80.3305	183.105	79.5673	183.105	80.2765	183.105	79.7894	183.105	80.17	183.105	80.0016
188.965	84.6271	188.965	84.2231	188.965	84.9752	188.965	83.7764	188.965	85.2529	188.965	83.2989	188.965	85.4419	188.965	82.8019	188.965	85.5193	188.965	82.2951	188.965	85.4572	188.965	81.7866	188.965	85.2265	188.965	81.2846	188.965	84.8054	188.965	80.7996	188.965	84.1913	188.965	80.3472	188.965	83.4177	188.965	79.9505	188.965	82.5681	188.965	79.6381	188.965	81.7739	188.965	79.4386	188.965	81.1684	188.965	79.3698	188.965	80.8103	188.965	79.4296	188.965	80.6523	188.965	79.593	188.965	80.5918	188.965	79.8186	188.965	80.5377	188.965	80.0597	188.965	80.4379	188.965	80.2755
196.289	84.4802	196.289	84.0783	196.289	84.8279	196.289	83.6378	196.289	85.1041	196.289	83.1724	196.289	85.2885	196.289	82.6928	196.289	85.3573	196.289	82.2063	196.289	85.2838	196.289	81.7171	196.289	85.0417	196.289	81.2282	196.289	84.6142	196.289	80.7449	196.289	84.0061	196.289	80.2786	196.289	83.2594	196.289	79.8504	196.289	82.4636	196.289	79.4915	196.289	81.743	196.289	79.2376	196.289	81.2045	196.289	79.1177	196.289	80.8752	196.289	79.1407	196.289	80.696	196.289	79.2884	196.289	80.5769	196.289	79.5205	196.289	80.4482	196.289	79.789	196.289	80.2749	196.289	80.0506
203.613	84.593	203.613	84.1812	203.613	84.9335	203.613	83.7173	203.613	85.1843	203.613	83.2211	203.613	85.3254	203.613	82.7121	203.613	85.3334	203.613	82.2069	203.613	85.1809	203.613	81.7174	203.613	84.8423	203.613	81.251	203.613	84.3056	203.613	80.8136	203.613	83.592	203.613	80.413	203.613	82.7777	203.613	80.0634	203.613	81.9999	203.613	79.7855	203.613	81.4124	203.613	79.6034	203.613	81.0892	203.613	79.5358	203.613	80.9763	203.613	79.5868	203.613	80.9543	203.613	79.7407	203.613	80.9247	203.613	79.9654	203.613	80.8383	203.613	80.2214	203.613	80.6838	203.613	80.471
210.938	85.0116	210.938	84.5739	210.938	85.3834	210.938	84.0825	210.938	85.6746	210.938	83.5498	210.938	85.8654	210.938	82.9878	210.938	85.9281	210.938	82.4074	210.938	85.8261	210.938	81.8165	210.938	85.5195	210.938	81.22	210.938	84.9739	210.938	80.6217	210.938	84.1774	210.938	80.0299	210.938	83.1637	210.938	79.4637	210.938	82.0394	210.938	78.9586	210.938	80.991	210.938	78.5642	210.938	80.216	210.938	78.3297	210.938	79.7885	210.938	78.2794	210.938	79.6164	210.938	78.3952	210.938	79.5483	210.938	78.6219	210.938	79.4744	210.938	78.891	210.938	79.3435	210.938	79.1441
218.262	85.0753	218.262	84.6618	218.262	85.4243	218.262	84.1966	218.262	85.6941	218.262	83.6914	218.262	85.8652	218.262	83.1576	218.262	85.9121	218.262	82.6058	218.262	85.803	218.262	82.0456	218.262	85.5044	218.262	81.4867	218.262	84.9916	218.262	80.9407	218.262	84.2662	218.262	80.4238	218.262	83.3794	218.262	79.9596	218.262	82.452	218.262	79.5782	218.262	81.6552	218.262	79.3102	218.262	81.1203	218.262	79.1767	218.262	80.8432	218.262	79.1794	218.262	80.7094	218.262	79.299	218.262	80.6003	218.262	79.5016	218.262	80.4521	218.262	79.7495	218.262	80.2507	218.262	80.0088
225.586	84.9767	225.586	84.5978	225.586	85.2908	225.586	84.1652	225.586	85.5265	225.586	83.6885	225.586	85.6652	225.586	83.176	225.586	85.6822	225.586	82.635	225.586	85.547	225.586	82.0719	225.586	85.2299	225.586	81.4946	225.586	84.7149	225.586	80.9161	225.586	84.0218	225.586	80.3603	225.586	83.2302	225.586	79.8672	225.586	82.4877	225.586	79.4912	225.586	81.9574	225.586	79.2886	225.586	81.7083	225.586	79.2922	225.586	81.6665	225.586	79.4914	225.586	81.6935	225.586	79.8344	225.586	81.6808	225.586	80.251	225.586	81.5757	225.586	80.6756	225.586	81.3654	225.586	81.0584
232.91	85.4127	232.91	84.9955	232.91	85.7587	232.91	84.523	232.91	86.016	232.91	84.0095	232.91	86.1639	232.91	83.4666	232.91	86.1753	232.91	82.9015	232.91	86.0154	232.91	82.316	232.91	85.6445	232.91	81.708	232.91	85.0275	232.91	81.0756	232.91	84.1551	232.91	80.4245	232.91	83.0779	232.91	79.7791	232.91	81.9497	232.91	79.1915	232.91	81.0261	232.91	78.7413	232.91	80.5209	232.91	78.5116	232.91	80.4094	232.91	78.5434	232.91	80.4798	232.91	78.8032	232.91	80.5394	232.91	79.2003	232.91	80.4938	232.91	79.6331	232.91	80.3187	232.91	80.0226
241.699	85.4258	241.699	85.0227	241.699	85.7756	241.699	84.5804	241.699	86.0522	241.699	84.1074	241.699	86.2276	241.699	83.6061	241.699	86.2631	241.699	83.0724	241.699	86.1087	241.699	82.4953	241.699	85.7077	241.699	81.8596	241.699	85.0114	241.699	81.1503	241.699	84.0067	241.699	80.3624	241.699	82.768	241.699	79.5171	241.699	81.5245	241.699	78.6847	241.699	80.6357	241.699	78.0038	241.699	80.313	241.699	77.653	241.699	80.3935	241.699	77.7382	241.699	80.5736	241.699	78.1911	241.699	80.6667	241.699	78.8247	241.699	80.6079	241.699	79.4625	241.699	80.3845	241.699	79.998
250.488	85.885	250.488	85.4584	250.488	86.22	250.488	84.9668	250.488	86.4394	250.488	84.4381	250.488	86.5192	250.488	83.8989	250.488	86.4308	250.488	83.3698	250.488	86.1379	250.488	82.8628	250.488	85.6003	250.488	82.3811	250.488	84.7897	250.488	81.9205	250.488	83.7212	250.488	81.4733	250.488	82.5006	250.488	81.0332	250.488	81.3565	250.488	80.6009	250.488	80.5578	250.488	80.1883	250.488	80.1907	250.488	79.8197	250.488	80.0919	250.488	79.5273	250.488	80.0511	250.488	79.3405	250.488	79.9603	250.488	79.2728	250.488	79.8062	250.488	79.3157	250.488	79.6201	250.488	79.4433
259.277	86.441	259.277	86.0153	259.277	86.7904	259.277	85.5254	259.277	87.0502	259.277	84.9839	259.277	87.2002	259.277	84.4029	259.277	87.2065	259.277	83.7896	259.277	87.0171	259.277	83.143	259.277	86.5647	259.277	82.4534	259.277	85.7787	259.277	81.7082	259.277	84.6101	259.277	80.9033	259.277	83.0852	259.277	80.0586	259.277	81.4144	259.277	79.2376	259.277	80.0852	259.277	78.5546	259.277	79.5511	259.277	78.1447	259.277	79.6564	259.277	78.0828	259.277	79.9185	259.277	78.321	259.277	80.0627	259.277	78.7258	259.277	80.0332	259.277	79.1655	259.277	79.8539	259.277	79.5558
268.066	86.3993	268.066	86.014	268.066	86.7258	268.066	85.5769	268.066	86.9834	268.066	85.094	268.066	87.1549	268.066	84.5713	268.066	87.2121	268.066	84.0144	268.066	87.1123	268.066	83.4275	268.066	86.802	268.066	82.8136	268.066	86.2295	268.066	82.1773	268.066	85.3706	268.066	81.5313	268.066	84.2729	268.066	80.9069	268.066	83.115	268.066	80.3601	268.066	82.2065	268.066	79.9661	268.066	81.7835	268.066	79.7912	268.066	81.7627	268.066	79.8538	268.066	81.87	268.066	80.1101	268.066	81.9072	268.066	80.4797	268.066	81.8093	268.066	80.8839	268.066	81.5851	268.066	81.2655
276.855	85.8658	276.855	85.4399	276.855	86.2308	276.855	84.9744	276.855	86.5128	276.855	84.4858	276.855	86.686	276.855	83.9804	276.855	86.7137	276.855	83.4514	276.855	86.54	276.855	82.8804	276.855	86.0907	276.855	82.2427	276.855	85.2887	276.855	81.5171	276.855	84.0946	276.855	80.6979	276.855	82.5962	276.855	79.8147	276.855	81.1642	276.855	78.9606	276.855	80.4151	276.855	78.3106	276.855	80.5335	276.855	78.0664	276.855	81.0208	276.855	78.3036	276.855	81.4211	276.855	78.8909	276.855	81.5864	276.855	79.6093	276.855	81.5241	276.855	80.2925	276.855	81.2726	276.855	80.8571
287.109	85.122	287.109	84.6692	287.109	85.5293	287.109	84.1892	287.109	85.875	287.109	83.7064	287.109	86.1349	287.109	83.2472	287.109	86.2672	287.109	82.8272	287.109	86.2083	287.109	82.4374	287.109	85.8765	287.109	82.0419	287.109	85.1842	287.109	81.5889	287.109	84.0608	287.109	81.0309	287.109	82.5087	287.109	80.3455	287.109	80.7428	287.109	79.5582	287.109	79.3743	287.109	78.7666	287.109	79.0275	287.109	78.1457	287.109	79.4374	287.109	77.8809	287.109	79.9323	287.109	78.0294	287.109	80.192	287.109	78.4702	287.109	80.1778	287.109	79.0185	287.109	79.9397	287.109	79.535
297.363	85.891	297.363	85.5443	297.363	86.1604	297.363	85.1197	297.363	86.3526	297.363	84.6201	297.363	86.4579	297.363	84.0544	297.363	86.4464	297.363	83.4357	297.363	86.2596	297.363	82.7763	297.363	85.8132	297.363	82.0813	297.363	85.0134	297.363	81.346	297.363	83.7905	297.363	80.5616	297.363	82.1679	297.363	79.7294	297.363	80.407	297.363	78.8827	297.363	79.1178	297.363	78.1077	297.363	78.765	297.363	77.5409	297.363	79.0111	297.363	77.3085	297.363	79.3014	297.363	77.43	297.363	79.4066	297.363	77.7978	297.363	79.3148	297.363	78.261	297.363	79.0686	297.363	78.7055
307.617	85.9663	307.617	85.5868	307.617	86.3062	307.617	85.1735	307.617	86.5945	307.617	84.7285	307.617	86.8063	307.617	84.2509	307.617	86.8954	307.617	83.7353	307.617	86.7902	307.617	83.1712	307.617	86.3992	307.617	82.5439	307.617	85.6288	307.617	81.8385	307.617	84.4159	307.617	81.0494	307.617	82.8008	307.617	80.1969	307.617	81.0855	307.617	79.3488	307.617	79.9391	307.617	78.6365	307.617	79.7993	307.617	78.2264	307.617	80.2278	307.617	78.2187	307.617	80.6419	307.617	78.5594	307.617	80.8226	307.617	79.087	307.617	80.767	307.617	79.6463	307.617	80.5259	307.617	80.1417
319.336	85.3863	319.336	84.9202	319.336	85.8387	319.336	84.4591	319.336	86.2484	319.336	84.0143	319.336	86.57	319.336	83.5893	319.336	86.7351	319.336	83.1775	319.336	86.6498	319.336	82.7598	319.336	86.1997	319.336	82.3061	319.336	85.2651	319.336	81.7804	319.336	83.7527	319.336	81.1526	319.336	81.6937	319.336	80.4142	319.336	79.5364	319.336	79.5997	319.336	78.3729	319.336	78.8104	319.336	78.6089	319.336	78.2162	319.336	79.2827	319.336	77.9813	319.336	79.7494	319.336	78.1337	319.336	79.9282	319.336	78.5371	319.336	79.8987	319.336	79.0084	319.336	79.723	319.336	79.4216
329.59	85.1056	329.59	84.5936	329.59	85.6229	329.59	84.12	329.59	86.1036	329.59	83.702	329.59	86.4978	329.59	83.3356	329.59	86.7418	329.59	82.9965	329.59	86.7489	329.59	82.6472	329.59	86.4057	329.59	82.2452	329.59	85.5787	329.59	81.7517	329.59	84.1351	329.59	81.1421	329.59	82.0169	329.59	80.421	329.59	79.546	329.59	79.6447	329.59	78.0148	329.59	78.9409	329.59	78.3297	329.59	78.4869	329.59	79.2295	329.59	78.4018	329.59	79.7946	329.59	78.6361	329.59	79.9692	329.59	79.0138	329.59	79.9292	329.59	79.3714	329.59	79.8089	329.59	79.634
341.309	85.5799	341.309	85.0199	341.309	86.0714	341.309	84.4135	341.309	86.4845	341.309	83.7945	341.309	86.8076	341.309	83.1977	341.309	87.0072	341.309	82.6403	341.309	87.0091	341.309	82.1104	341.309	86.6963	341.309	81.5719	341.309	85.9235	341.309	80.9858	341.309	84.5464	341.309	80.3367	341.309	82.5044	341.309	79.6599	341.309	80.1542	341.309	79.0606	341.309	78.8941	341.309	78.6961	341.309	79.5564	341.309	78.6861	341.309	80.7214	341.309	79.0084	341.309	81.4688	341.309	79.5175	341.309	81.7243	341.309	80.0617	341.309	81.636	341.309	80.558	341.309	81.3586	341.309	80.9892
353.027	84.941	353.027	84.3583	353.027	85.5131	353.027	83.797	353.027	86.0503	353.027	83.2966	353.027	86.5209	353.027	82.886	353.027	86.8637	353.027	82.5581	353.027	86.9733	353.027	82.2572	353.027	86.6989	353.027	81.8904	353.027	85.8516	353.027	81.3507	353.027	84.2051	353.027	80.5359	353.027	81.5093	353.027	79.3649	353.027	77.8596	353.027	77.8274	353.027	75.9849	353.027	76.1716	353.027	77.9621	353.027	75.2481	353.027	79.9751	353.027	75.89	353.027	81.0566	353.027	77.4489	353.027	81.4719	353.027	78.9613	353.027	81.4994	353.027	80.0938	353.027	81.2852	353.027	80.8408
366.211	84.9436	366.211	84.3526	366.211	85.4658	366.211	83.6866	366.211	85.9383	366.211	82.9781	366.211	86.3588	366.211	82.3046	366.211	86.6748	366.211	81.7581	366.211	86.7774	366.211	81.3791	366.211	86.5175	366.211	81.1093	366.211	85.7279	366.211	80.8193	366.211	84.2409	366.211	80.3744	366.211	81.9324	366.211	79.6788	366.211	79.0135	366.211	78.6949	366.211	77.0416	366.211	77.4748	366.211	77.6069	366.211	76.2314	366.211	78.8849	366.211	75.378	366.211	79.5938	366.211	75.2735	366.211	79.6489	366.211	75.8271	366.211	79.2193	366.211	76.6848	366.211	78.489	366.211	77.609
379.395	84.278	379.395	83.7179	379.395	84.8905	379.395	83.2087	379.395	85.5314	379.395	82.7385	379.395	86.1455	379.395	82.3028	379.395	86.6436	379.395	81.9102	379.395	86.8988	379.395	81.5675	379.395	86.7473	379.395	81.2526	379.395	85.9907	379.395	80.9031	379.395	84.3856	379.395	80.4322	379.395	81.5934	379.395	79.7578	379.395	77.1204	379.395	78.8342	379.395	72.0688	379.395	77.6984	379.395	74.0129	379.395	76.5578	379.395	77.0959	379.395	75.8482	379.395	78.6637	379.395	75.9488	379.395	79.2858	379.395	76.7042	379.395	79.3552	379.395	77.6502	379.395	79.06	379.395	78.4756
392.578	83.5203	392.578	83.0116	392.578	84.0834	392.578	82.5503	392.578	84.6954	392.578	82.134	392.578	85.317	392.578	81.7727	392.578	85.8609	392.578	81.481	392.578	86.1925	392.578	81.2543	392.578	86.1435	392.578	81.0474	392.578	85.5248	392.578	80.7755	392.578	84.1248	392.578	80.3392	392.578	81.6926	392.578	79.6548	392.578	78.0057	392.578	78.6838	392.578	74.1148	392.578	77.4833	392.578	74.467	392.578	76.3055	392.578	76.716	392.578	75.6316	392.578	78.057	392.578	75.7846	392.578	78.5778	392.578	76.4942	392.578	78.6141	392.578	77.2909	392.578	78.3747	392.578	77.9332
405.762	82.1428	405.762	81.3666	405.762	82.9857	405.762	80.6752	405.762	83.873	405.762	80.1041	405.762	84.7529	405.762	79.7077	405.762	85.5278	405.762	79.5279	405.762	86.0553	405.762	79.5455	405.762	86.1609	405.762	79.6607	405.762	85.6513	405.762	79.7293	405.762	84.3163	405.762	79.6173	405.762	81.9177	405.762	79.2343	405.762	78.2708	405.762	78.5535	405.762	74.4213	405.762	77.6477	405.762	74.4973	405.762	76.7531	405.762	76.5126	405.762	76.25	405.762	77.7592	405.762	76.3607	405.762	78.2775	405.762	76.8879	405.762	78.3814	405.762	77.4848	405.762	78.255	405.762	77.9557
420.41	83.4153	420.41	82.8338	420.41	84.0211	420.41	82.2548	420.41	84.6638	420.41	81.6765	420.41	85.3186	420.41	81.1406	420.41	85.9022	420.41	80.7273	420.41	86.27	420.41	80.4975	420.41	86.2351	420.41	80.4156	420.41	85.5883	420.41	80.3426	420.41	84.0981	420.41	80.1077	420.41	81.4789	420.41	79.5753	420.41	77.3933	420.41	78.6775	420.41	72.7467	420.41	77.4565	420.41	73.3409	420.41	76.1724	420.41	75.9878	420.41	75.3709	420.41	77.47	420.41	75.449	420.41	78.0563	420.41	76.1103	420.41	78.1143	420.41	76.8495	420.41	77.8731	420.41	77.4452
435.059	81.488	435.059	80.7568	435.059	82.3426	435.059	80.1168	435.059	83.3134	435.059	79.5411	435.059	84.332	435.059	79.0572	435.059	85.2743	435.059	78.7602	435.059	85.975	435.059	78.7405	435.059	86.24	435.059	78.9541	435.059	85.8514	435.059	79.2047	435.059	84.5531	435.059	79.262	435.059	81.9902	435.059	78.9604	435.059	77.5398	435.059	78.2238	435.059	70.8003	435.059	77.0949	435.059	71.6386	435.059	75.846	435.059	75.4943	435.059	75.0801	435.059	77.3024	435.059	75.2733	435.059	78.0449	435.059	76.1093	435.059	78.2507	435.059	77.0112	435.059	78.1189	435.059	77.7019
451.172	80.6374	451.172	79.9954	451.172	81.5152	451.172	79.5294	451.172	82.6027	451.172	79.1615	451.172	83.7849	451.172	78.8753	451.172	84.8977	451.172	78.7421	451.172	85.7598	451.172	78.8444	451.172	86.1817	451.172	79.1423	451.172	85.9634	451.172	79.4497	451.172	84.8805	451.172	79.5452	451.172	82.6445	451.172	79.2612	451.172	78.8036	451.172	78.5021	451.172	72.8729	451.172	77.2617	451.172	70.3354	451.172	75.739	451.172	73.8449	451.172	74.567	451.172	75.8949	451.172	74.5144	451.172	76.8159	451.172	75.356	451.172	77.1901	451.172	76.2962	451.172	77.2266	451.172	76.9399
465.82	80.3303	465.82	79.5809	465.82	81.4064	465.82	79.1958	465.82	82.6359	465.82	79.0458	465.82	83.8277	465.82	78.9652	465.82	84.8241	465.82	78.8847	465.82	85.4876	465.82	78.8524	465.82	85.6789	465.82	78.9472	465.82	85.2489	465.82	79.1536	465.82	84.0362	465.82	79.3279	465.82	81.8605	465.82	79.2841	465.82	78.5234	465.82	78.8796	465.82	74.0366	465.82	78.0519	465.82	70.6153	465.82	76.854	465.82	71.683	465.82	75.5348	465.82	73.5822	465.82	74.5663	465.82	74.7269	465.82	74.3024	465.82	75.2146	465.82	74.5704	465.82	75.2405	465.82	74.9709
483.398	80.5644	483.398	79.7431	483.398	81.6178	483.398	79.1925	483.398	82.7949	483.398	78.8441	483.398	83.9707	483.398	78.5695	483.398	85.0214	483.398	78.2921	483.398	85.8108	483.398	78.0663	483.398	86.1743	483.398	78.0283	483.398	85.9183	483.398	78.214	483.398	84.8265	483.398	78.4635	483.398	82.6608	483.398	78.5555	483.398	79.1856	483.398	78.3591	483.398	74.5931	483.398	77.8786	483.398	71.7803	483.398	77.2488	483.398	72.6699	483.398	76.685	483.398	73.836	483.398	76.3409	483.398	74.5683	483.398	76.1758	483.398	75.0756	483.398	76.0302	483.398	75.4742	483.398	75.7982
499.512	78.6805	499.512	77.5514	499.512	79.9617	499.512	76.7365	499.512	81.242	499.512	76.2723	499.512	82.4636	499.512	76.1388	499.512	83.6229	499.512	76.4518	499.512	84.674	499.512	77.3115	499.512	85.4615	499.512	78.4545	499.512	85.7261	499.512	79.4125	499.512	85.149	499.512	79.8469	499.512	83.3667	499.512	79.5904	499.512	79.9651	499.512	78.5885	499.512	75.2912	499.512	76.9682	499.512	74.8929	499.512	75.4585	499.512	77.6701	499.512	75.4855	499.512	79.4694	499.512	76.9515	499.512	80.4746	499.512	78.5415	499.512	80.9493	499.512	79.7456	499.512	80.9567	499.512	80.5434
517.09	83.4025	517.09	82.2572	517.09	84.3867	517.09	81.2657	517.09	85.0507	517.09	80.6972	517.09	85.366	517.09	80.4393	517.09	85.3814	517.09	80.1099	517.09	85.2023	517.09	79.4455	517.09	84.9751	517.09	78.5031	517.09	84.7578	517.09	77.7205	517.09	84.2984	517.09	77.5715	517.09	83.0515	517.09	77.8641	517.09	80.3497	517.09	77.9831	517.09	75.225	517.09	77.5041	517.09	66.5878	517.09	76.2544	517.09	69.8592	517.09	74.3501	517.09	74.0804	517.09	72.7783	517.09	76.1529	517.09	73.2533	517.09	77.1451	517.09	75.0323	517.09	77.2579	517.09	76.5269
536.133	83.0556	536.133	81.8202	536.133	84.1614	536.133	80.6846	536.133	85.0296	536.133	79.9367	536.133	85.6198	536.133	79.6303	536.133	85.9194	536.133	79.489	536.133	85.92	536.133	79.2394	536.133	85.5951	536.133	78.8641	536.133	84.8969	536.133	78.5639	536.133	83.7663	536.133	78.4801	536.133	82.1425	536.133	78.4476	536.133	79.9729	536.133	78.1218	536.133	77.202	536.133	77.2141	536.133	73.8296	536.133	75.6129	536.133	71.1384	536.133	73.7261	536.133	72.2057	536.133	73.1027	536.133	74.594	536.133	74.3636	536.133	76.1529	536.133	75.8623	536.133	76.8185	536.133	76.7167
555.176	83.3549	555.176	81.986	555.176	84.6071	555.176	80.8397	555.176	85.5135	555.176	80.1827	555.176	85.9705	555.176	80.0031	555.176	85.9644	555.176	80.0877	555.176	85.5473	555.176	80.2035	555.176	84.8363	555.176	80.174	555.176	84.0143	555.176	79.9153	555.176	83.1805	555.176	79.4486	555.176	82.1148	555.176	78.8674	555.176	80.4012	555.176	78.2614	555.176	77.751	555.176	77.6525	555.176	74.1771	555.176	77.0251	555.176	70.8863	555.176	76.4408	555.176	71.1394	555.176	76.0722	555.176	73.2561	555.176	76.0146	555.176	74.8157	555.176	76.105	555.176	75.685	555.176	76.0631
574.219	83.632	574.219	82.0435	574.219	85.0436	574.219	80.5796	574.219	86.1027	574.219	79.5202	574.219	86.7381	574.219	78.8834	574.219	86.9348	574.219	78.5364	574.219	86.6823	574.219	78.4673	574.219	85.9225	574.219	78.7341	574.219	84.5729	574.219	79.2513	574.219	82.7384	574.219	79.7778	574.219	81.0141	574.219	80.0494	574.219	79.8958	574.219	79.8496	574.219	78.5818	574.219	79.0101	574.219	75.7938	574.219	77.4185	574.219	70.8708	574.219	75.1863	574.219	69.9484	574.219	73.3221	574.219	73.733	574.219	73.4979	574.219	75.6951	574.219	74.8554	574.219	76.2452	574.219	75.9002
594.727	83.5837	594.727	82.1009	594.727	84.8627	594.727	80.9143	594.727	85.7179	594.727	80.4704	594.727	86.1	594.727	80.5236	594.727	86.0506	594.727	80.5353	594.727	85.6794	594.727	80.2767	594.727	85.0998	594.727	79.7989	594.727	84.2818	594.727	79.268	594.727	82.954	594.727	78.8557	594.727	80.8354	594.727	78.6176	594.727	78.4101	594.727	78.3968	594.727	76.9234	594.727	77.8963	594.727	75.3309	594.727	76.8677	594.727	71.7383	594.727	75.3545	594.727	70.2371	594.727	74.1199	594.727	74.123	594.727	74.321	594.727	76.4147	594.727	75.537	594.727	77.0497	594.727	76.628
615.234	82.0685	615.234	79.7366	615.234	83.968	615.234	77.3931	615.234	85.3254	615.234	76.0567	615.234	86.0907	615.234	76.2525	615.234	86.2373	615.234	77.1366	615.234	85.7521	615.234	77.9577	615.234	84.5827	615.234	78.421	615.234	82.7011	615.234	78.4163	615.234	80.6505	615.234	78.0106	615.234	79.7603	615.234	77.5596	615.234	79.6473	615.234	77.5427	615.234	78.8008	615.234	77.9253	615.234	76.6324	615.234	78.1635	615.234	72.9334	615.234	77.8564	615.234	69.1783	615.234	76.9693	615.234	70.9165	615.234	75.8651	615.234	73.6018	615.234	75.1944	615.234	74.8305	615.234	75.0915
637.207	83.1101	637.207	81.3645	637.207	84.5047	637.207	79.5292	637.207	85.5045	637.207	78.2559	637.207	86.1165	637.207	77.9271	637.207	86.3736	637.207	78.0322	637.207	86.2987	637.207	78.1288	637.207	85.7848	637.207	78.2588	637.207	84.4886	637.207	78.5044	637.207	81.8984	637.207	78.7203	637.207	78.0651	637.207	78.6894	637.207	76.2449	637.207	78.2789	637.207	76.4784	637.207	77.4324	637.207	74.3546	637.207	76.1329	637.207	67.0741	637.207	74.4939	637.207	63.4006	637.207	73.1392	637.207	71.7743	637.207	73.1345	637.207	74.5804	637.207	74.2082	637.207	75.4178	637.207	75.1695
659.18	82.9368	659.18	80.4855	659.18	84.6547	659.18	77.5058	659.18	85.6464	659.18	75.1451	659.18	85.9298	659.18	74.7911	659.18	85.5815	659.18	75.4633	659.18	84.814	659.18	76.1743	659.18	83.9511	659.18	76.8464	659.18	83.1209	659.18	77.4271	659.18	81.8039	659.18	77.7555	659.18	79.2106	659.18	77.7803	659.18	76.6716	659.18	77.687	659.18	77.3577	659.18	77.7363	659.18	77.3832	659.18	77.8512	659.18	74.5396	659.18	77.6373	659.18	69.1534	659.18	76.8196	659.18	69.4531	659.18	75.4865	659.18	72.2423	659.18	74.1722	659.18	73.2208	659.18	73.4984
682.617	83.9746	682.617	81.8526	682.617	85.6956	682.617	79.5172	682.617	86.8923	682.617	77.5984	682.617	87.4257	682.617	76.8574	682.617	87.2257	682.617	76.8587	682.617	86.3359	682.617	76.8328	682.617	84.8664	682.617	76.7831	682.617	82.9874	682.617	77.0729	682.617	81.0684	682.617	77.6348	682.617	79.2847	682.617	77.9806	682.617	77.3977	682.617	77.7805	682.617	75.8722	682.617	77.0555	682.617	74.238	682.617	76.0979	682.617	69.9599	682.617	75.2498	682.617	64.95	682.617	74.7006	682.617	71.8482	682.617	74.6362	682.617	75.2269	682.617	75.1895	682.617	76.2332	682.617	75.9692
707.52	83.3338	707.52	80.9357	707.52	85.2083	707.52	78.1363	707.52	86.5232	707.52	75.9339	707.52	87.2011	707.52	75.7025	707.52	87.2276	707.52	76.2668	707.52	86.6778	707.52	76.373	707.52	85.5928	707.52	76.1646	707.52	83.9118	707.52	76.3477	707.52	81.7126	707.52	77.018	707.52	79.3542	707.52	77.4172	707.52	77.4058	707.52	76.9706	707.52	76.3709	707.52	75.8751	707.52	74.8324	707.52	75.3516	707.52	70.1759	707.52	75.9401	707.52	55.2295	707.52	76.3382	707.52	66.6443	707.52	75.6635	707.52	70.1993	707.52	73.8451	707.52	70.778	707.52	71.6913
732.422	83.8612	732.422	81.6205	732.422	85.681	732.422	79.1168	732.422	86.9237	732.422	76.9179	732.422	87.4851	732.422	76.2691	732.422	87.3936	732.422	77.0318	732.422	86.7474	732.422	77.8344	732.422	85.4848	732.422	78.1986	732.422	83.085	732.422	78.4656	732.422	78.3875	732.422	79.0948	732.422	70.9547	732.422	79.7577	732.422	73.4113	732.422	79.6507	732.422	76.037	732.422	78.2428	732.422	75.9328	732.422	75.6056	732.422	72.9184	732.422	73.8578	732.422	65.0249	732.422	74.8694	732.422	60.5595	732.422	75.6717	732.422	66.8106	732.422	74.9616	732.422	70.0161	732.422	72.8668
757.324	83.475	757.324	80.789	757.324	85.5639	757.324	77.6211	757.324	87.0121	757.324	75.4051	757.324	87.7091	757.324	76.0195	757.324	87.6317	757.324	77.4098	757.324	86.9461	757.324	78.1177	757.324	85.8845	757.324	78.1494	757.324	84.4162	757.324	78.0753	757.324	82.208	757.324	78.6458	757.324	78.3586	757.324	79.633	757.324	71.8179	757.324	80.0751	757.324	72.8475	757.324	79.4176	757.324	74.1947	757.324	77.7126	757.324	69.4548	757.324	75.8513	757.324	61.3873	757.324	74.9549	757.324	72.4971	757.324	74.391	757.324	74.8918	757.324	73.4531	757.324	74.4043	757.324	73.2534
785.156	83.7976	785.156	81.6062	785.156	85.8883	785.156	79.7291	785.156	87.402	785.156	78.331	785.156	88.124	785.156	77.6552	785.156	88.0893	785.156	77.8115	785.156	87.4803	785.156	78.4337	785.156	86.4149	785.156	78.858	785.156	84.7843	785.156	78.5994	785.156	82.7071	785.156	78.1721	785.156	79.9774	785.156	78.9708	785.156	74.2317	785.156	80.0993	785.156	70.4962	785.156	79.7444	785.156	73.6338	785.156	77.1471	785.156	70.0692	785.156	73.8647	785.156	52.5541	785.156	75.7723	785.156	66.158	785.156	77.8875	785.156	67.6537	785.156	77.8155	785.156	71.1896	785.156	75.5954
811.523	83.2057	811.523	80.3081	811.523	85.6425	811.523	77.1213	811.523	87.3273	811.523	74.4981	811.523	88.0733	811.523	74.5959	811.523	87.9436	811.523	76.5304	811.523	87.2513	811.523	78.4101	811.523	86.3263	811.523	79.6832	811.523	84.9529	811.523	80.1407	811.523	82.3596	811.523	80.0478	811.523	77.7454	811.523	80.3695	811.523	70.5897	811.523	81.1815	811.523	72.5141	811.523	81.3091	811.523	75.8906	811.523	79.9814	811.523	73.6514	811.523	77.1096	811.523	62.2236	811.523	74.494	811.523	66.8824	811.523	74.7475	811.523	70.1303	811.523	74.8959	811.523	71.0403	811.523	73.3112
840.82	82.6154	840.82	79.8818	840.82	85.4162	840.82	77.9323	840.82	87.3978	840.82	76.6303	840.82	88.368	840.82	76.2424	840.82	88.5158	840.82	76.4483	840.82	88.098	840.82	76.7955	840.82	87.1629	840.82	78.074	840.82	85.2501	840.82	79.6465	840.82	82.1656	840.82	80.2504	840.82	78.5913	840.82	80.285	840.82	69.3473	840.82	80.8592	840.82	72.9958	840.82	81.3434	840.82	77.0039	840.82	80.4547	840.82	72.6128	840.82	77.9533	840.82	56.0217	840.82	76.2594	840.82	69.6932	840.82	77.6456	840.82	68.5676	840.82	78.3686	840.82	71.3365	840.82	76.5879
870.117	81.816	870.117	78.5119	870.117	84.9435	870.117	76.3567	870.117	87.1516	870.117	76.0007	870.117	88.3477	870.117	77.6119	870.117	88.6294	870.117	79.5727	870.117	88.1464	870.117	80.7458	870.117	87.0392	870.117	81.4376	870.117	85.1236	870.117	81.8486	870.117	82.4719	870.117	81.5052	870.117	79.7971	870.117	80.4757	870.117	73.4407	870.117	80.2265	870.117	67.4448	870.117	80.9863	870.117	75.2629	870.117	80.8961	870.117	73.8902	870.117	79.054	870.117	64.3886	870.117	75.979	870.117	66.9025	870.117	74.9153	870.117	70.7892	870.117	75.6486	870.117	72.5311	870.117	74.8584
900.879	83.5676	900.879	80.6361	900.879	86.2451	900.879	79.4612	900.879	87.8789	900.879	79.2173	900.879	88.7892	900.879	79.5346	900.879	89.1554	900.879	80.1797	900.879	88.8289	900.879	80.0162	900.879	87.5999	900.879	79.4153	900.879	85.0427	900.879	79.8244	900.879	82.4541	900.879	80.6056	900.879	82.0935	900.879	80.6261	900.879	76.5675	900.879	80.647	900.879	70.2246	900.879	81.2894	900.879	77.7575	900.879	81.0008	900.879	75.902	900.879	78.6124	900.879	65.1167	900.879	75.6215	900.879	67.3058	900.879	77.013	900.879	65.9017	900.879	78.3959	900.879	70.197	900.879	76.7731
933.105	82.5445	933.105	77.9508	933.105	85.9779	933.105	76.2133	933.105	87.6842	933.105	77.2831	933.105	88.2121	933.105	79.2019	933.105	88.2032	933.105	80.8641	933.105	87.9882	933.105	81.1037	933.105	87.4456	933.105	79.8627	933.105	85.7501	933.105	78.3137	933.105	81.41	933.105	78.0663	933.105	77.5437	933.105	78.4703	933.105	73.6211	933.105	78.9795	933.105	67.8587	933.105	79.9511	933.105	77.1432	933.105	80.5138	933.105	75.6598	933.105	79.6488	933.105	63.9661	933.105	77.5432	933.105	69.8877	933.105	76.3695	933.105	73.0827	933.105	76.4066	933.105	72.677	933.105	74.9088
965.332	82.6759	965.332	76.0784	965.332	86.3743	965.332	73.8197	965.332	88.1012	965.332	77.2282	965.332	88.7084	965.332	79.4808	965.332	88.6855	965.332	80.9657	965.332	88.0099	965.332	80.8717	965.332	86.5189	965.332	78.8453	965.332	84.1461	965.332	76.3411	965.332	80.7594	965.332	77.2622	965.332	79.0778	965.332	79.0782	965.332	75.3948	965.332	79.9105	965.332	61.8303	965.332	80.5269	965.332	75.1654	965.332	80.6099	965.332	75.9151	965.332	78.8923	965.332	66.8796	965.332	75.1519	965.332	69.6513	965.332	74.0718	965.332	71.2122	965.332	76.0074	965.332	69.3217	965.332	75.024
1000.49	83.9031	1000.49	78.9496	1000.49	86.278	1000.49	73.7069	1000.49	87.2106	1000.49	77.0727	1000.49	87.3764	1000.49	79.5944	1000.49	87.2117	1000.49	81.0478	1000.49	86.7074	1000.49	81.3425	1000.49	85.7036	1000.49	80.1935	1000.49	83.9493	1000.49	77.8081	1000.49	79.9099	1000.49	76.0951	1000.49	77.9867	1000.49	77.1669	1000.49	77.2737	1000.49	78.0388	1000.49	59.4352	1000.49	78.7626	1000.49	73.6617	1000.49	80.0868	1000.49	75.4878	1000.49	80.1165	1000.49	67.6545	1000.49	77.9526	1000.49	66.4615	1000.49	75.2906	1000.49	69.1079	1000.49	75.5938	1000.49	70.2242	1000.49	75.0459
1035.64	86.1513	1035.64	80.6004	1035.64	88.1222	1035.64	72.2028	1035.64	87.9737	1035.64	77.1821	1035.64	87.1867	1035.64	79.5092	1035.64	87.1384	1035.64	80.6346	1035.64	87.3804	1035.64	81.2851	1035.64	86.5762	1035.64	80.9916	1035.64	84.088	1035.64	79.6187	1035.64	77.876	1035.64	78.5622	1035.64	73.9365	1035.64	79.1824	1035.64	76.4158	1035.64	79.4713	1035.64	71.9284	1035.64	79.5898	1035.64	69.4299	1035.64	80.5986	1035.64	76.7668	1035.64	80.5778	1035.64	72.2811	1035.64	78.4649	1035.64	67.5508	1035.64	75.6731	1035.64	65.3652	1035.64	76.3188	1035.64	70.0722	1035.64	76.2996
1072.27	86.6155	1072.27	81.2172	1072.27	88.1706	1072.27	72.3317	1072.27	87.7161	1072.27	78.5089	1072.27	87.0349	1072.27	81.1964	1072.27	87.2747	1072.27	82.4266	1072.27	87.488	1072.27	82.3771	1072.27	86.4735	1072.27	80.9276	1072.27	84.197	1072.27	78.1898	1072.27	80.1835	1072.27	75.7478	1072.27	74.0076	1072.27	77.3213	1072.27	74.4821	1072.27	78.7956	1072.27	75.6332	1072.27	79.2072	1072.27	60.7338	1072.27	80.167	1072.27	73.1108	1072.27	80.5087	1072.27	73.3206	1072.27	79.1963	1072.27	67.2977	1072.27	76.9893	1072.27	61.4638	1072.27	76.8776	1072.27	74.3521	1072.27	77.5286
1108.89	87.8526	1108.89	82.617	1108.89	89.1577	1108.89	71.5502	1108.89	88.4416	1108.89	79.7746	1108.89	87.6248	1108.89	82.27	1108.89	87.6947	1108.89	82.6891	1108.89	87.7739	1108.89	82.5461	1108.89	86.6969	1108.89	82.1721	1108.89	83.7638	1108.89	81.4692	1108.89	77.3499	1108.89	80.343	1108.89	72.1709	1108.89	79.2085	1108.89	76.5648	1108.89	78.2575	1108.89	77.7249	1108.89	77.5381	1108.89	65.51	1108.89	78.1616	1108.89	74.1803	1108.89	79.2073	1108.89	73.3234	1108.89	79.4049	1108.89	47.0023	1108.89	78.7146	1108.89	69.3722	1108.89	78.0439	1108.89	73.6025	1108.89	76.7622
1148.44	88.22	1148.44	82.2078	1148.44	89.7389	1148.44	68.2165	1148.44	89.1069	1148.44	80.047	1148.44	87.9348	1148.44	81.896	1148.44	87.1148	1148.44	82.5322	1148.44	86.9138	1148.44	83.3031	1148.44	86.1668	1148.44	83.005	1148.44	84.4691	1148.44	80.7017	1148.44	81.3668	1148.44	76.6338	1148.44	73.003	1148.44	75.4845	1148.44	73.9849	1148.44	77.5526	1148.44	78.834	1148.44	77.4405	1148.44	70.1495	1148.44	76.4821	1148.44	73.1327	1148.44	78.0835	1148.44	75.348	1148.44	80.0466	1148.44	68.1571	1148.44	80.153	1148.44	66.5981	1148.44	78.3145	1148.44	75.2987	1148.44	77.1387
1189.45	87.355	1189.45	81.0356	1189.45	89.167	1189.45	62.4219	1189.45	89.0911	1189.45	78.1245	1189.45	88.7578	1189.45	81.2421	1189.45	88.1758	1189.45	83.2478	1189.45	87.8134	1189.45	84.5605	1189.45	86.4605	1189.45	84.1169	1189.45	82.4776	1189.45	81.9327	1189.45	78.2852	1189.45	79.2056	1189.45	75.2663	1189.45	77.41	1189.45	72.5827	1189.45	77.3125	1189.45	80.4779	1189.45	77.9801	1189.45	73.7114	1189.45	78.7054	1189.45	68.5315	1189.45	79.0587	1189.45	74.6293	1189.45	79.0485	1189.45	65.8987	1189.45	79.1739	1189.45	67.817	1189.45	78.9642	1189.45	72.0635	1189.45	76.5359
1230.47	86.9353	1230.47	82.2374	1230.47	88.2804	1230.47	70.8442	1230.47	88.3661	1230.47	77.7755	1230.47	88.5537	1230.47	81.8258	1230.47	87.9195	1230.47	83.2692	1230.47	86.2191	1230.47	83.9651	1230.47	83.6779	1230.47	83.4682	1230.47	80.4175	1230.47	81.0254	1230.47	78.1286	1230.47	77.124	1230.47	75.948	1230.47	74.6985	1230.47	73.8947	1230.47	76.2692	1230.47	79.6953	1230.47	77.8357	1230.47	75.8803	1230.47	77.7951	1230.47	62.3409	1230.47	77.3395	1230.47	73.8122	1230.47	78.307	1230.47	70.658	1230.47	80.0036	1230.47	55.9289	1230.47	80.2332	1230.47	71.4024	1230.47	77.5703
1274.41	85.8989	1274.41	82.277	1274.41	87.0774	1274.41	71.4444	1274.41	88.1066	1274.41	76.1729	1274.41	88.6269	1274.41	81.9733	1274.41	87.1389	1274.41	83.7726	1274.41	84.4501	1274.41	84.1958	1274.41	81.5145	1274.41	83.4395	1274.41	75.6511	1274.41	81.1713	1274.41	68.5445	1274.41	76.8558	1274.41	72.6481	1274.41	72.3103	1274.41	67.4233	1274.41	74.1112	1274.41	76.0729	1274.41	73.2269	1274.41	73.4677	1274.41	71.7089	1274.41	68.0767	1274.41	74.0507	1274.41	74.3696	1274.41	77.5411	1274.41	71.3427	1274.41	79.2699	1274.41	54.0534	1274.41	79.1066	1274.41	69.3889	1274.41	76.6796
1319.82	85.3846	1319.82	82.4366	1319.82	86.607	1319.82	73.1169	1319.82	88.1767	1319.82	74.7911	1319.82	88.8518	1319.82	81.5359	1319.82	86.6025	1319.82	83.0817	1319.82	82.0584	1319.82	82.8118	1319.82	77.6582	1319.82	81.0934	1319.82	73.4091	1319.82	78.991	1319.82	70.3643	1319.82	77.4258	1319.82	75.0236	1319.82	73.0981	1319.82	74.0773	1319.82	71.4632	1319.82	76.7092	1319.82	75.1982	1319.82	76.7981	1319.82	74.655	1319.82	71.5375	1319.82	74.676	1319.82	76.1194	1319.82	77.2613	1319.82	73.987	1319.82	79.0259	1319.82	58.5012	1319.82	78.5294	1319.82	68.2785	1319.82	75.3861
1366.7	84.9911	1366.7	82.2438	1366.7	86.5669	1366.7	71.8908	1366.7	88.4093	1366.7	75.5233	1366.7	88.6977	1366.7	81.3314	1366.7	85.976	1366.7	82.5822	1366.7	80.1683	1366.7	82.8756	1366.7	73.626	1366.7	81.9357	1366.7	71.3559	1366.7	79.4964	1366.7	70.3378	1366.7	76.8517	1366.7	66.1148	1366.7	72.3295	1366.7	70.9894	1366.7	67.6187	1366.7	75.9612	1366.7	73.6591	1366.7	77.2511	1366.7	73.1054	1366.7	74.2413	1366.7	71.8624	1366.7	75.5962	1366.7	75.1675	1366.7	74.1404	1366.7	78.6134	1366.7	64.7549	1366.7	78.8064	1366.7	63.2758	1366.7	74.7485
1413.57	84.0555	1413.57	80.9063	1413.57	86.1783	1413.57	69.3517	1413.57	88.3718	1413.57	75.7363	1413.57	88.6915	1413.57	81.7033	1413.57	86.0235	1413.57	82.4509	1413.57	80.0371	1413.57	81.7746	1413.57	72.8281	1413.57	81.3783	1413.57	70.9172	1413.57	79.9883	1413.57	67.6139	1413.57	77.4235	1413.57	72.7692	1413.57	74.1588	1413.57	76.383	1413.57	61.5192	1413.57	77.0023	1413.57	69.3041	1413.57	77.2152	1413.57	72.0499	1413.57	75.0616	1413.57	71.6802	1413.57	75.8462	1413.57	74.5457	1413.57	75.195	1413.57	77.6467	1413.57	68.027	1413.57	77.0267	1413.57	61.574	1413.57	72.0393
1463.38	84.0873	1463.38	80.2745	1463.38	86.6093	1463.38	65.799	1463.38	88.3531	1463.38	76.0106	1463.38	87.9685	1463.38	80.9365	1463.38	84.8266	1463.38	81.7771	1463.38	78.2505	1463.38	81.031	1463.38	68.343	1463.38	79.5219	1463.38	64.3927	1463.38	76.7798	1463.38	66.8451	1463.38	72.5699	1463.38	61.2129	1463.38	72.1714	1463.38	71.3627	1463.38	67.6013	1463.38	75.1631	1463.38	64.5453	1463.38	76.2178	1463.38	70.3879	1463.38	76.4502	1463.38	69.7824	1463.38	76.8645	1463.38	72.2758	1463.38	74.7905	1463.38	74.9569	1463.38	68.306	1463.38	75.2609	1463.38	56.0963	1463.38	68.9571
1516.11	84.7217	1516.11	79.7191	1516.11	87.3515	1516.11	63.2911	1516.11	88.2805	1516.11	75.1446	1516.11	86.9105	1516.11	80.5806	1516.11	82.7513	1516.11	81.5589	1516.11	74.7842	1516.11	80.7491	1516.11	68.6307	1516.11	79.2169	1516.11	63.2156	1516.11	75.84	1516.11	52.5947	1516.11	68.7138	1516.11	47.9192	1516.11	65.6817	1516.11	72.1538	1516.11	65.1937	1516.11	75.5058	1516.11	61.8476	1516.11	74.6613	1516.11	68.7271	1516.11	75.5281	1516.11	64.6535	1516.11	75.9322	1516.11	67.459	1516.11	73.8534	1516.11	71.7522	1516.11	68.2041	1516.11	72.4891	1516.11	58.575	1516.11	66.0158
1568.85	85.2066	1568.85	80.1025	1568.85	87.6756	1568.85	63.6708	1568.85	88.049	1568.85	75.5428	1568.85	85.474	1568.85	80.8689	1568.85	79.9402	1568.85	81.818	1568.85	72.2526	1568.85	80.6779	1568.85	68.4352	1568.85	78.246	1568.85	69.1261	1568.85	74.0508	1568.85	61.6929	1568.85	66.7215	1568.85	68.3249	1568.85	53.6527	1568.85	65.559	1568.85	63.7232	1568.85	73.5795	1568.85	65.6406	1568.85	73.757	1568.85	67.2787	1568.85	73.9882	1568.85	61.2865	1568.85	74.6068	1568.85	62.6486	1568.85	71.8639	1568.85	69.3915	1568.85	66.4864	1568.85	69.58	1568.85	61.4034	1568.85	61.0274
1624.51	85.8462	1624.51	80.694	1624.51	88.1705	1624.51	57.7351	1624.51	87.9867	1624.51	76.1012	1624.51	84.5894	1624.51	80.6554	1624.51	78.6737	1624.51	82.082	1624.51	72.0701	1624.51	81.156	1624.51	64.7844	1624.51	78.7901	1624.51	70.502	1624.51	74.7246	1624.51	70.2009	1624.51	66.4681	1624.51	65.6274	1624.51	56.1211	1624.51	63.8517	1624.51	63.1288	1624.51	69.0099	1624.51	64.5717	1624.51	71.756	1624.51	66.8497	1624.51	73.2029	1624.51	60.8929	1624.51	73.3193	1624.51	64.1252	1624.51	72.192	1624.51	68.7486	1624.51	67.9985	1624.51	65.959	1624.51	62.0272	1624.51	52.8682
1681.64	86.3575	1681.64	80.9512	1681.64	88.6485	1681.64	49.2747	1681.64	88.1916	1681.64	77.3762	1681.64	84.698	1681.64	80.8613	1681.64	78.9598	1681.64	82.105	1681.64	69.8146	1681.64	80.685	1681.64	66.3812	1681.64	77.547	1681.64	75.3907	1681.64	73.9602	1681.64	74.8746	1681.64	69.6042	1681.64	61.9385	1681.64	66.8201	1681.64	60.7719	1681.64	70.2879	1681.64	62.8383	1681.64	70.714	1681.64	66.5546	1681.64	69.5413	1681.64	70.5917	1681.64	64.6584	1681.64	72.9498	1681.64	65.8777	1681.64	70.2042	1681.64	67.7136	1681.64	68.1997	1681.64	65.008	1681.64	64.092	1681.64	51.5575
1741.7	86.3608	1741.7	80.7854	1741.7	88.6743	1741.7	52.0595	1741.7	88.352	1741.7	77.9308	1741.7	84.6152	1741.7	80.4194	1741.7	76.7839	1741.7	81.1591	1741.7	65.7886	1741.7	79.7676	1741.7	73.822	1741.7	74.8645	1741.7	78.0597	1741.7	68.7827	1741.7	76.5523	1741.7	66.0877	1741.7	72.6946	1741.7	67.9502	1741.7	66.3374	1741.7	70.3394	1741.7	52.3097	1741.7	70.9408	1741.7	61.4981	1741.7	69.7292	1741.7	62.1922	1741.7	65.7579	1741.7	68.6145	1741.7	63.3336	1741.7	68.8341	1741.7	67.3552	1741.7	67.6833	1741.7	61.8742	1741.7	67.6932	1741.7	63.2592
1803.22	86.5524	1803.22	81.5692	1803.22	88.7172	1803.22	59.1136	1803.22	88.4315	1803.22	78.2498	1803.22	83.6757	1803.22	80.5509	1803.22	72.8868	1803.22	79.7062	1803.22	71.8275	1803.22	78.0948	1803.22	76.4572	1803.22	74.0178	1803.22	79.2557	1803.22	70.6387	1803.22	77.569	1803.22	69.4409	1803.22	69.4921	1803.22	69.3932	1803.22	63.467	1803.22	71.2189	1803.22	54.0453	1803.22	73.2676	1803.22	58.4881	1803.22	73.7513	1803.22	40.0887	1803.22	69.6893	1803.22	66.6332	1803.22	67.454	1803.22	67.2894	1803.22	66.0921	1803.22	68.0289	1803.22	64.2225	1803.22	67.6819	1803.22	67.2552
1866.21	86.9294	1866.21	82.1677	1866.21	89.0867	1866.21	57.8476	1866.21	88.4179	1866.21	79.2227	1866.21	82.1605	1866.21	80.862	1866.21	69.0643	1866.21	78.3502	1866.21	77.0201	1866.21	74.8683	1866.21	79.3096	1866.21	72.6635	1866.21	80.9997	1866.21	71.0273	1866.21	77.3475	1866.21	67.9572	1866.21	71.3912	1866.21	65.0286	1866.21	68.4714	1866.21	70.3333	1866.21	58.0171	1866.21	74.5076	1866.21	58.8514	1866.21	74.5546	1866.21	58.7154	1866.21	70.6888	1866.21	65.2689	1866.21	70.9474	1866.21	67.3131	1866.21	69.4336	1866.21	68.4572	1866.21	68.3877	1866.21	69.8124	1866.21	70.3379
1932.13	87.1787	1932.13	82.247	1932.13	89.6377	1932.13	59.8007	1932.13	88.8643	1932.13	80.0808	1932.13	80.6685	1932.13	81.2749	1932.13	72.8879	1932.13	78.4066	1932.13	80.3071	1932.13	76.8991	1932.13	82.4914	1932.13	75.6347	1932.13	82.9265	1932.13	73.2276	1932.13	79.5813	1932.13	72.5498	1932.13	71.1131	1932.13	72.3992	1932.13	71.1353	1932.13	73.274	1932.13	62.4136	1932.13	73.9575	1932.13	42.7344	1932.13	73.9385	1932.13	66.0781	1932.13	69.9781	1932.13	64.194	1932.13	74.243	1932.13	68.5739	1932.13	75.2834	1932.13	70.3108	1932.13	71.741	1932.13	72.3029	1932.13	71.4244
1999.51	86.2531	1999.51	81.1515	1999.51	89.5985	1999.51	58.9331	1999.51	88.6557	1999.51	79.5333	1999.51	79.1486	1999.51	81.2947	1999.51	74.1345	1999.51	78.5341	1999.51	81.8953	1999.51	78.1859	1999.51	84.6584	1999.51	77.3772	1999.51	84.5808	1999.51	76.1404	1999.51	81.224	1999.51	71.9596	1999.51	72.4603	1999.51	70.1052	1999.51	72.4202	1999.51	73.8557	1999.51	64.343	1999.51	75.9147	1999.51	57.5226	1999.51	75.2317	1999.51	66.71	1999.51	70.0985	1999.51	59.313	1999.51	73.7596	1999.51	68.4935	1999.51	76.0183	1999.51	69.2435	1999.51	69.8357	1999.51	74.2202	1999.51	73.2225
2069.82	85.3708	2069.82	79.1435	2069.82	89.0269	2069.82	71.5439	2069.82	87.7492	2069.82	78.623	2069.82	76.9882	2069.82	81.78	2069.82	74.7826	2069.82	78.3925	2069.82	82.6723	2069.82	76.3302	2069.82	85.2674	2069.82	79.1876	2069.82	84.7465	2069.82	78.9698	2069.82	79.7443	2069.82	71.4816	2069.82	73.4616	2069.82	48.4917	2069.82	72.663	2069.82	71.6208	2069.82	65.2097	2069.82	77.4351	2069.82	57.6969	2069.82	77.6701	2069.82	65.1416	2069.82	71.6612	2069.82	58.56	2069.82	68.6675	2069.82	69.354	2069.82	74.2459	2069.82	64.0358	2069.82	67.3877	2069.82	74.0776	2069.82	74.4575
2143.07	83.9675	2143.07	77.1047	2143.07	88.7521	2143.07	76.1659	2143.07	87.2552	2143.07	78.8066	2143.07	74.0102	2143.07	81.9482	2143.07	76.1372	2143.07	81.06	2143.07	82.4406	2143.07	79.8645	2143.07	85.3264	2143.07	80.4734	2143.07	83.8914	2143.07	78.7494	2143.07	77.6584	2143.07	70.7376	2143.07	71.8948	2143.07	61.8189	2143.07	73.4982	2143.07	64.0015	2143.07	68.1734	2143.07	75.4414	2143.07	67.136	2143.07	79.7191	2143.07	66.6662	2143.07	75.8251	2143.07	67.1643	2143.07	56.3748	2143.07	69.8893	2143.07	73.1313	2143.07	62.7303	2143.07	69.1645	2143.07	74.0127	2143.07	75.6404
2219.24	83.2647	2219.24	71.7929	2219.24	88.9328	2219.24	77.2329	2219.24	86.2059	2219.24	80.102	2219.24	64.8433	2219.24	81.066	2219.24	77.6915	2219.24	81.5491	2219.24	82.7926	2219.24	80.0872	2219.24	83.748	2219.24	78.6181	2219.24	81.5422	2219.24	77.5585	2219.24	73.5523	2219.24	74.766	2219.24	65.0553	2219.24	60.3932	2219.24	71.3558	2219.24	60.936	2219.24	73.4479	2219.24	73.77	2219.24	65.5418	2219.24	80.1748	2219.24	63.6952	2219.24	78.8145	2219.24	68.2413	2219.24	60.6186	2219.24	71.8585	2219.24	68.736	2219.24	63.4534	2219.24	60.4364	2219.24	73.2467	2219.24	74.204
2296.88	83.9511	2296.88	71.6853	2296.88	89.001	2296.88	75.5938	2296.88	84.6427	2296.88	80.309	2296.88	63.1251	2296.88	80.0521	2296.88	77.7021	2296.88	80.4744	2296.88	82.6911	2296.88	78.7998	2296.88	82.0965	2296.88	77.1711	2296.88	78.0066	2296.88	77.7585	2296.88	69.9931	2296.88	73.908	2296.88	65.2046	2296.88	64.4644	2296.88	65.6339	2296.88	62.0287	2296.88	73.0289	2296.88	70.827	2296.88	66.1865	2296.88	79.4855	2296.88	66.9557	2296.88	79.4155	2296.88	69.2078	2296.88	68.469	2296.88	71.0357	2296.88	66.3092	2296.88	65.6764	2296.88	61.5276	2296.88	72.9704	2296.88	74.6049
2378.91	84.8842	2378.91	69.9975	2378.91	88.9824	2378.91	76.4301	2378.91	83.0297	2378.91	81.204	2378.91	61.9585	2378.91	80.2605	2378.91	80.3239	2378.91	80.4368	2378.91	82.5734	2378.91	79.5035	2378.91	80.2359	2378.91	77.6283	2378.91	76.2057	2378.91	77.2903	2378.91	68.3234	2378.91	74.1224	2378.91	64.4539	2378.91	68.9681	2378.91	69.0146	2378.91	65.7484	2378.91	73.5165	2378.91	67.063	2378.91	69.9248	2378.91	78.8927	2378.91	69.9946	2378.91	80.5276	2378.91	70.7691	2378.91	72.7987	2378.91	72.9561	2378.91	60.5864	2378.91	67.1899	2378.91	63.9382	2378.91	74.2223	2378.91	75.5569
2462.4	84.8598	2462.4	64.8618	2462.4	88.7486	2462.4	78.5309	2462.4	82.4101	2462.4	82.273	2462.4	64.5676	2462.4	80.8823	2462.4	81.7586	2462.4	81.3084	2462.4	83.17	2462.4	79.727	2462.4	79.458	2462.4	77.3868	2462.4	75.748	2462.4	77.556	2462.4	69.4364	2462.4	75.6401	2462.4	61.8626	2462.4	71.2327	2462.4	69.9646	2462.4	66.649	2462.4	72.5463	2462.4	69.6198	2462.4	66.9934	2462.4	77.8617	2462.4	67.5055	2462.4	79.8921	2462.4	72.7069	2462.4	72.5939	2462.4	74.1603	2462.4	60.7598	2462.4	66.117	2462.4	64.2896	2462.4	75.5443	2462.4	76.5022
2548.83	85.3349	2548.83	66.0172	2548.83	87.9033	2548.83	77.864	2548.83	81.0045	2548.83	83.1976	2548.83	70.095	2548.83	80.5891	2548.83	83.5617	2548.83	81.3395	2548.83	82.4038	2548.83	79.6606	2548.83	76.4258	2548.83	75.6572	2548.83	75.3445	2548.83	77.8	2548.83	69.7892	2548.83	74.7019	2548.83	40.9546	2548.83	63.5971	2548.83	71.1328	2548.83	57.4787	2548.83	69.8342	2548.83	69.3057	2548.83	65.8229	2548.83	77.5837	2548.83	66.8397	2548.83	78.28	2548.83	72.1842	2548.83	69.277	2548.83	74.3783	2548.83	67.0325	2548.83	67.9486	2548.83	67.454	2548.83	74.1563	2548.83	77.0929
2639.65	85.4164	2639.65	65.8097	2639.65	86.1366	2639.65	77.1601	2639.65	80.9489	2639.65	84.3421	2639.65	76.6899	2639.65	82.3016	2639.65	85.4149	2639.65	80.5351	2639.65	80.9111	2639.65	80.5584	2639.65	73.8611	2639.65	76.9985	2639.65	75.9442	2639.65	78.0773	2639.65	69.3113	2639.65	76.518	2639.65	59.858	2639.65	67.6684	2639.65	71.947	2639.65	64.03	2639.65	71.5372	2639.65	67.0804	2639.65	69.9415	2639.65	77.8186	2639.65	65.073	2639.65	78.1943	2639.65	69.9796	2639.65	67.7679	2639.65	74.4541	2639.65	68.3702	2639.65	70.9205	2639.65	70.7176	2639.65	71.5981	2639.65	76.4892
2731.93	85.0483	2731.93	69.9658	2731.93	85.7834	2731.93	79.6603	2731.93	82.119	2731.93	84.4474	2731.93	79.6717	2731.93	83.1153	2731.93	85.0699	2731.93	78.775	2731.93	78.4322	2731.93	79.2717	2731.93	72.9742	2731.93	76.1901	2731.93	72.3544	2731.93	75.7155	2731.93	67.5406	2731.93	76.6432	2731.93	57.1508	2731.93	71.534	2731.93	70.1068	2731.93	69.8764	2731.93	66.8715	2731.93	61.8258	2731.93	70.266	2731.93	77.2159	2731.93	60.9333	2731.93	77.6953	2731.93	64.5067	2731.93	68.0645	2731.93	71.3816	2731.93	68.7677	2731.93	71.353	2731.93	68.6354	2731.93	63.1563	2731.93	73.6699
2828.61	84.0095	2828.61	69.9875	2828.61	85.6557	2828.61	81.2171	2828.61	81.8052	2828.61	84.9753	2828.61	81.5426	2828.61	82.8692	2828.61	83.9943	2828.61	76.9848	2828.61	74.6875	2828.61	76.5151	2828.61	69.9517	2828.61	75.9338	2828.61	70.685	2828.61	73.7187	2828.61	70.5031	2828.61	75.5318	2828.61	61.7606	2828.61	71.4038	2828.61	63.3398	2828.61	69.4466	2828.61	64.2537	2828.61	56.3171	2828.61	69.6243	2828.61	74.6832	2828.61	56.3117	2828.61	77.3314	2828.61	55.4285	2828.61	70.1955	2828.61	64.5908	2828.61	68.9299	2828.61	71.2403	2828.61	63.642	2828.61	62.0119	2828.61	68.7635
2928.22	83.1463	2928.22	70.6929	2928.22	85.0832	2928.22	81.1257	2928.22	80.3201	2928.22	85.4222	2928.22	81.5051	2928.22	82.1967	2928.22	81.4752	2928.22	76.3886	2928.22	75.3653	2928.22	76.383	2928.22	69.8453	2928.22	76.1445	2928.22	65.4863	2928.22	74.414	2928.22	71.9798	2928.22	75.0213	2928.22	64.4958	2928.22	70.0976	2928.22	54.631	2928.22	67.0451	2928.22	64.9047	2928.22	60.9875	2928.22	53.3011	2928.22	71.889	2928.22	57.8511	2928.22	75.5874	2928.22	49.4074	2928.22	66.0109	2928.22	63.7614	2928.22	67.5463	2928.22	71.664	2928.22	60.3928	2928.22	65.9745	2928.22	62.0042
3030.76	82.3365	3030.76	72.4448	3030.76	84.7702	3030.76	80.4271	3030.76	79.3501	3030.76	85.3101	3030.76	81.5174	3030.76	82.2557	3030.76	80.6106	3030.76	76.8456	3030.76	75.7042	3030.76	75.8426	3030.76	65.3661	3030.76	75.5754	3030.76	65.8895	3030.76	74.2625	3030.76	74.0348	3030.76	74.5792	3030.76	66.3977	3030.76	69.1268	3030.76	60.2593	3030.76	65.6071	3030.76	56.6624	3030.76	61.8047	3030.76	53.0463	3030.76	70.136	3030.76	64.3076	3030.76	73.8028	3030.76	57.1185	3030.76	61.5114	3030.76	62.3944	3030.76	68.713	3030.76	70.5262	3030.76	59.1756	3030.76	69.3535	3030.76	55.979
3137.7	81.8384	3137.7	76.4122	3137.7	85.0101	3137.7	81.4087	3137.7	78.9271	3137.7	85.0956	3137.7	79.626	3137.7	82.1729	3137.7	79.7884	3137.7	77.0945	3137.7	74.0609	3137.7	73.9139	3137.7	65.3585	3137.7	72.3306	3137.7	67.801	3137.7	71.0574	3137.7	73.0479	3137.7	70.9594	3137.7	63.4444	3137.7	66.3576	3137.7	58.5251	3137.7	63.4569	3137.7	54.0796	3137.7	56.9188	3137.7	63.7585	3137.7	66.8769	3137.7	52.448	3137.7	71.001	3137.7	60.1595	3137.7	56.3793	3137.7	48.5971	3137.7	68.5453	3137.7	66.6136	3137.7	65.2104	3137.7	69.6275	3137.7	62.4108
3249.02	82.1394	3249.02	77.1221	3249.02	84.0201	3249.02	80.4185	3249.02	77.965	3249.02	84.1964	3249.02	79.6562	3249.02	82.1889	3249.02	77.3209	3249.02	78.2556	3249.02	69.4075	3249.02	73.8444	3249.02	66.9772	3249.02	71.0249	3249.02	63.9935	3249.02	72.221	3249.02	71.0712	3249.02	70.3758	3249.02	63.6449	3249.02	67.6051	3249.02	57.6088	3249.02	61.6308	3249.02	57.7878	3249.02	41.8994	3249.02	55.9233	3249.02	62.8773	3249.02	56.3582	3249.02	67.4478	3249.02	64.095	3249.02	55.6343	3249.02	58.5145	3249.02	68.697	3249.02	66.2697	3249.02	68.8584	3249.02	70.0972	3249.02	65.0407
3363.28	80.8591	3363.28	77.5511	3363.28	83.2624	3363.28	81.0127	3363.28	76.8367	3363.28	83.9934	3363.28	77.71	3363.28	83.1967	3363.28	73.4406	3363.28	80.6908	3363.28	68.669	3363.28	75.2877	3363.28	68.2799	3363.28	72.1206	3363.28	64.5963	3363.28	75.2185	3363.28	66.762	3363.28	73.1683	3363.28	63.2839	3363.28	70.2365	3363.28	62.6394	3363.28	67.2814	3363.28	56.9751	3363.28	59.3376	3363.28	60.435	3363.28	64.5593	3363.28	57.8011	3363.28	66.1091	3363.28	61.8531	3363.28	59.8311	3363.28	63.6008	3363.28	67.6573	3363.28	66.4561	3363.28	68.551	3363.28	67.2073	3363.28	64.5938
3481.93	81.3783	3481.93	77.2289	3481.93	83.7981	3481.93	81.2658	3481.93	76.6905	3481.93	83.4749	3481.93	74.6014	3481.93	83.6007	3481.93	70.2519	3481.93	82.3183	3481.93	64.2916	3481.93	76.1945	3481.93	66.1195	3481.93	72.6264	3481.93	68.2432	3481.93	76.6651	3481.93	64.9679	3481.93	75.7143	3481.93	58.9764	3481.93	72.1644	3481.93	62.6594	3481.93	72.5964	3481.93	50.8591	3481.93	68.1762	3481.93	66.2286	3481.93	66.8788	3481.93	64.1439	3481.93	69.898	3481.93	61.6613	3481.93	55.8931	3481.93	62.2402	3481.93	68.5471	3481.93	67.4233	3481.93	68.2091	3481.93	65.1525	3481.93	66.6232
3604.98	81.9444	3604.98	72.4059	3604.98	82.7284	3604.98	80.0953	3604.98	74.2297	3604.98	83.5259	3604.98	75.624	3604.98	84.262	3604.98	57.6493	3604.98	83.0653	3604.98	73.6118	3604.98	75.3849	3604.98	41.4797	3604.98	72.9591	3604.98	70.5496	3604.98	75.0669	3604.98	66.5442	3604.98	75.301	3604.98	55.7227	3604.98	72.2767	3604.98	57.3655	3604.98	73.045	3604.98	62.5606	3604.98	71.3145	3604.98	65.6708	3604.98	67.2192	3604.98	66.3588	3604.98	70.4723	3604.98	66.2986	3604.98	59.5441	3604.98	54.1741	3604.98	68.8069	3604.98	66.9398	3604.98	67.9668	3604.98	63.0763	3604.98	67.183
3732.42	84.0988	3732.42	76.44	3732.42	82.5478	3732.42	81	3732.42	77.276	3732.42	84.7443	3732.42	75.776	3732.42	84.6294	3732.42	70.0746	3732.42	82.5366	3732.42	75.7155	3732.42	72.9261	3732.42	68.1125	3732.42	73.8688	3732.42	73.9298	3732.42	74.1177	3732.42	69.1657	3732.42	74.2194	3732.42	51.5036	3732.42	72.8241	3732.42	52.3624	3732.42	73.8612	3732.42	63.9769	3732.42	72.6094	3732.42	65.6231	3732.42	66.7517	3732.42	69.3129	3732.42	69.4392	3732.42	68.8142	3732.42	61.44	3732.42	57.5167	3732.42	70.0796	3732.42	64.6568	3732.42	67.364	3732.42	62.5899	3732.42	66.822
3864.26	84.4379	3864.26	78.5682	3864.26	82.4182	3864.26	80.5473	3864.26	80.4299	3864.26	85.0494	3864.26	75.0576	3864.26	84.65	3864.26	76.24	3864.26	80.9675	3864.26	72.3148	3864.26	62.6644	3864.26	67.7512	3864.26	75.2635	3864.26	76.0995	3864.26	68.9361	3864.26	74.1553	3864.26	68.7028	3864.26	59.3629	3864.26	71.5352	3864.26	58.4265	3864.26	70.3191	3864.26	63.495	3864.26	72.7576	3864.26	64.5956	3864.26	58.4971	3864.26	70.2125	3864.26	65.5606	3864.26	69.8202	3864.26	60.0585	3864.26	56.578	3864.26	69.2832	3864.26	61.6397	3864.26	66.6256	3864.26	62.0616	3864.26	64.247
4000.49	85.3398	4000.49	81.2887	4000.49	83.4067	4000.49	82.4643	4000.49	81.014	4000.49	86.3167	4000.49	70.2653	4000.49	84.4773	4000.49	76.061	4000.49	78.0291	4000.49	66.3156	4000.49	63.1314	4000.49	67.7971	4000.49	71.2046	4000.49	77.4381	4000.49	62.8474	4000.49	76.0759	4000.49	65.1185	4000.49	64.7835	4000.49	71.3808	4000.49	63.5349	4000.49	66.3137	4000.49	44.658	4000.49	70.5325	4000.49	56.4524	4000.49	50.5208	4000.49	68.5703	4000.49	50.5523	4000.49	68.6472	4000.49	60.8772	4000.49	63.3238	4000.49	66.5386	4000.49	55.7405	4000.49	68.8107	4000.49	62.7191	4000.49	67.9412
4141.11	85.7035	4141.11	81.5918	4141.11	84.4213	4141.11	83.0687	4141.11	82.2868	4141.11	86.9457	4141.11	71.1781	4141.11	84.815	4141.11	72.5494	4141.11	77.9875	4141.11	72.0593	4141.11	71.0509	4141.11	75.4354	4141.11	67.6582	4141.11	77.4267	4141.11	66.7854	4141.11	76.8946	4141.11	73.1125	4141.11	64.2731	4141.11	66.1066	4141.11	61.2241	4141.11	64.2176	4141.11	56.8661	4141.11	64.0384	4141.11	57.4456	4141.11	59.7873	4141.11	66.4339	4141.11	46.2043	4141.11	65.258	4141.11	63.8296	4141.11	60.1561	4141.11	63.3599	4141.11	56.1096	4141.11	70.5402	4141.11	66.7423	4141.11	69.0553
4287.6	85.5604	4287.6	82.1494	4287.6	83.9115	4287.6	83.8	4287.6	80.8225	4287.6	87.0718	4287.6	60.8382	4287.6	84.8985	4287.6	73.09	4287.6	79.1131	4287.6	73.4194	4287.6	73.3305	4287.6	75.5982	4287.6	64.9451	4287.6	75.6627	4287.6	73.4474	4287.6	74.5811	4287.6	76.8508	4287.6	65.2213	4287.6	73.1323	4287.6	55.4242	4287.6	64.5153	4287.6	50.1667	4287.6	61.5333	4287.6	62.8593	4287.6	68.8723	4287.6	65.7306	4287.6	63.5206	4287.6	61.3155	4287.6	67.6234	4287.6	47.459	4287.6	65.6414	4287.6	57.7376	4287.6	71.5031	4287.6	71.8876	4287.6	69.5909
4438.48	84.7758	4438.48	79.567	4438.48	83.056	4438.48	83.5953	4438.48	79.624	4438.48	86.5381	4438.48	66.3288	4438.48	84.2255	4438.48	71.631	4438.48	77.1023	4438.48	74.9244	4438.48	73.8509	4438.48	75.0522	4438.48	65.299	4438.48	72.5702	4438.48	74.3121	4438.48	69.1872	4438.48	76.2154	4438.48	57.3763	4438.48	72.5821	4438.48	52.9302	4438.48	69.7486	4438.48	55.6009	4438.48	64.228	4438.48	62.3429	4438.48	68.7038	4438.48	62.932	4438.48	67.2121	4438.48	62.4884	4438.48	68.928	4438.48	50.1207	4438.48	67.0584	4438.48	62.6305	4438.48	69.0492	4438.48	74.3441	4438.48	66.7808
4595.21	84.6668	4595.21	78.2077	4595.21	82.5486	4595.21	84.2696	4595.21	77.0916	4595.21	85.6525	4595.21	75.7814	4595.21	83.8454	4595.21	77.5156	4595.21	76.1971	4595.21	76.4542	4595.21	73.9658	4595.21	74.0202	4595.21	56.5255	4595.21	70.8304	4595.21	75.6716	4595.21	70.5517	4595.21	76.8275	4595.21	56.1066	4595.21	73.3139	4595.21	64.5686	4595.21	70.2626	4595.21	60.2422	4595.21	67.3592	4595.21	62.1068	4595.21	66.7789	4595.21	65.1771	4595.21	69.3869	4595.21	65.0758	4595.21	68.375	4595.21	61.9396	4595.21	68.5048	4595.21	64.2485	4595.21	66.211	4595.21	74.0193	4595.21	66.2679
4756.35	83.5577	4756.35	78.0563	4756.35	82.414	4756.35	84.0294	4756.35	74.95	4756.35	84.6925	4756.35	79.1374	4756.35	82.8811	4756.35	77.9615	4756.35	77.3305	4756.35	77.5504	4756.35	71.7407	4756.35	75.8215	4756.35	68.0969	4756.35	71.3186	4756.35	74.0508	4756.35	70.3177	4756.35	73.2507	4756.35	46.3698	4756.35	72.9663	4756.35	65.2833	4756.35	70.7877	4756.35	65.6677	4756.35	65.1448	4756.35	66.7745	4756.35	66.0193	4756.35	66.1903	4756.35	69.5846	4756.35	64.4913	4756.35	67.6273	4756.35	66.25	4756.35	69.2428	4756.35	64.0688	4756.35	57.8473	4756.35	73.0962	4756.35	68.1624
4924.8	83.828	4924.8	79.23	4924.8	84.1029	4924.8	84.553	4924.8	71.1964	4924.8	84.3743	4924.8	81.6169	4924.8	81.8864	4924.8	77.6682	4924.8	77.322	4924.8	79.6086	4924.8	66.389	4924.8	77.764	4924.8	68.0977	4924.8	71.6746	4924.8	71.682	4924.8	65.4509	4924.8	69.3034	4924.8	50.3781	4924.8	68.8802	4924.8	65.2301	4924.8	65.7732	4924.8	69.7467	4924.8	60.8047	4924.8	69.225	4924.8	61.2161	4924.8	67.2685	4924.8	66.5554	4924.8	64.6943	4924.8	58.5883	4924.8	68.2914	4924.8	68.202	4924.8	64.5864	4924.8	61.2187	4924.8	71.6694	4924.8	66.5394
5097.66	83.5252	5097.66	77.9509	5097.66	83.6018	5097.66	83.3174	5097.66	71.9116	5097.66	83.9589	5097.66	80.0561	5097.66	81.5161	5097.66	76.81	5097.66	75.1616	5097.66	80.748	5097.66	68.2111	5097.66	75.4168	5097.66	64.9023	5097.66	67.6899	5097.66	64.8827	5097.66	71.5672	5097.66	69.5763	5097.66	59.8134	5097.66	55.0561	5097.66	66.5862	5097.66	66.0469	5097.66	70.4432	5097.66	62.8496	5097.66	70.9716	5097.66	59.1302	5097.66	70.7859	5097.66	64.381	5097.66	61.8747	5097.66	66.5877	5097.66	71.6495	5097.66	67.107	5097.66	66.4093	5097.66	61.8676	5097.66	67.9699	5097.66	63.342
5277.83	82.1696	5277.83	71.4678	5277.83	82.2013	5277.83	81.5886	5277.83	70.9677	5277.83	83.7981	5277.83	75.3882	5277.83	81.2102	5277.83	76.8136	5277.83	72.2999	5277.83	79.2023	5277.83	70.2675	5277.83	73.1643	5277.83	65.5001	5277.83	66.004	5277.83	67.6089	5277.83	71.5802	5277.83	74.6015	5277.83	62.1355	5277.83	67.1514	5277.83	64.4084	5277.83	72.2989	5277.83	58.7475	5277.83	68.8158	5277.83	64.8041	5277.83	67.7982	5277.83	66.394	5277.83	70.599	5277.83	57.0358	5277.83	71.2178	5277.83	66.6265	5277.83	64.941	5277.83	65.2977	5277.83	62.0378	5277.83	62.7879	5277.83	59.5348
5463.87	81.7333	5463.87	72.8974	5463.87	80.2606	5463.87	79.4053	5463.87	72.0975	5463.87	82.9865	5463.87	75.0642	5463.87	80.3525	5463.87	78.1034	5463.87	70.0756	5463.87	77.9595	5463.87	70.3998	5463.87	67.2352	5463.87	65.6918	5463.87	66.5485	5463.87	68.4075	5463.87	66.6143	5463.87	70.2787	5463.87	63.1889	5463.87	68.1639	5463.87	62.9866	5463.87	71.7906	5463.87	58.3271	5463.87	68.1048	5463.87	60.857	5463.87	69.2978	5463.87	52.0402	5463.87	74.4159	5463.87	51.2783	5463.87	68.874	5463.87	55.7755	5463.87	67.4133	5463.87	59.3775	5463.87	62.8656	5463.87	64.5273	5463.87	68.7243
5657.23	81.4429	5657.23	74.7828	5657.23	80.5481	5657.23	78.4349	5657.23	76.8015	5657.23	81.0865	5657.23	76.5806	5657.23	78.7203	5657.23	78.2014	5657.23	52.2307	5657.23	78.1879	5657.23	69.9893	5657.23	57.8687	5657.23	68.7734	5657.23	59.4906	5657.23	67.1636	5657.23	69.8691	5657.23	65.535	5657.23	66.0905	5657.23	64.3769	5657.23	50.8689	5657.23	66.6224	5657.23	65.7544	5657.23	56.1362	5657.23	67.7323	5657.23	67.2098	5657.23	66.2497	5657.23	71.2798	5657.23	46.4368	5657.23	68.3152	5657.23	51.7543	5657.23	67.3031	5657.23	39.6509	5657.23	65.4507	5657.23	60.41	5657.23	69.8934
5856.45	82.922	5856.45	75.9932	5856.45	80.083	5856.45	79.7945	5856.45	78.242	5856.45	80.3712	5856.45	77.2495	5856.45	72.492	5856.45	78.0646	5856.45	62.5679	5856.45	74.2494	5856.45	70.9339	5856.45	70.5961	5856.45	70.9908	5856.45	69.9231	5856.45	69.7661	5856.45	72.9253	5856.45	73.3727	5856.45	63.2711	5856.45	67.7434	5856.45	61.0554	5856.45	68.005	5856.45	60.0449	5856.45	67.3424	5856.45	65.3036	5856.45	67.418	5856.45	68.4105	5856.45	66.2031	5856.45	55.4765	5856.45	69.9215	5856.45	64.1269	5856.45	66.2223	5856.45	58.5698	5856.45	68.1151	5856.45	56.6796	5856.45	68.1545
6062.99	85.2433	6062.99	77.4241	6062.99	79.6056	6062.99	81.4666	6062.99	78.6705	6062.99	80.7831	6062.99	79.6537	6062.99	72.9024	6062.99	79.824	6062.99	66.4618	6062.99	73.3846	6062.99	74.6768	6062.99	74.4938	6062.99	68.1672	6062.99	71.1481	6062.99	74.7774	6062.99	72.9105	6062.99	75.6507	6062.99	62.0531	6062.99	74.2799	6062.99	60.4095	6062.99	70.8728	6062.99	54.2002	6062.99	70.5985	6062.99	63.1511	6062.99	67.9599	6062.99	63.9771	6062.99	69.0731	6062.99	62.8726	6062.99	72.6236	6062.99	67.2461	6062.99	65.1395	6062.99	67.7993	6062.99	70.9879	6062.99	64.4001	6062.99	72.2527
6276.86	86.1367	6276.86	79.4432	6276.86	78.4949	6276.86	83.2606	6276.86	78.3622	6276.86	80.5495	6276.86	80.1918	6276.86	73.1364	6276.86	80.2156	6276.86	71.6832	6276.86	74.6494	6276.86	76.1288	6276.86	74.6561	6276.86	54.9754	6276.86	72.7006	6276.86	74.6066	6276.86	70.8537	6276.86	70.6791	6276.86	55.3394	6276.86	73.0848	6276.86	52.3081	6276.86	69.0078	6276.86	54.0345	6276.86	71.0599	6276.86	61.4208	6276.86	69.409	6276.86	61.1532	6276.86	70.4686	6276.86	65.4661	6276.86	74.0492	6276.86	70.9024	6276.86	65.165	6276.86	70.2198	6276.86	71.8549	6276.86	66.6109	6276.86	72.7366
6498.05	85.0041	6498.05	79.1428	6498.05	76.1741	6498.05	83.919	6498.05	80.1872	6498.05	81.3299	6498.05	79.5994	6498.05	71.2359	6498.05	80.2047	6498.05	73.7126	6498.05	71.0019	6498.05	77.5167	6498.05	76.5326	6498.05	66.093	6498.05	72.3036	6498.05	75.4038	6498.05	71.1803	6498.05	71.5193	6498.05	57.7345	6498.05	62.6272	6498.05	66.5049	6498.05	53.7219	6498.05	60.8082	6498.05	65.5712	6498.05	53.9589	6498.05	71.8246	6498.05	47.0478	6498.05	70.6134	6498.05	56.8543	6498.05	72.6372	6498.05	71.7557	6498.05	60.7738	6498.05	70.427	6498.05	70.1643	6498.05	63.631	6498.05	72.0381
6726.56	84.4125	6726.56	76.1715	6726.56	76.3549	6726.56	84.4981	6726.56	80.8229	6726.56	80.9586	6726.56	78.0542	6726.56	69.3902	6726.56	79.9436	6726.56	74.4791	6726.56	71.8443	6726.56	77.1202	6726.56	79.8031	6726.56	72.3557	6726.56	71.1586	6726.56	73.1166	6726.56	70.6156	6726.56	74.6825	6726.56	66.9947	6726.56	63.45	6726.56	67.4723	6726.56	63.8513	6726.56	53.8884	6726.56	59.4956	6726.56	62.1777	6726.56	73.76	6726.56	37.4352	6726.56	67.0847	6726.56	53.6011	6726.56	70.9158	6726.56	66.3741	6726.56	63.6939	6726.56	70.7275	6726.56	67.557	6726.56	63.6825	6726.56	66.0908
6963.87	84.7915	6963.87	75.9153	6963.87	75.776	6963.87	84.8434	6963.87	79.9284	6963.87	80.9966	6963.87	80.5286	6963.87	67.981	6963.87	75.4742	6963.87	75.4784	6963.87	80.076	6963.87	70.215	6963.87	80.8405	6963.87	74.5371	6963.87	62.6843	6963.87	70.726	6963.87	73.6167	6963.87	75.6251	6963.87	69.7895	6963.87	62.2113	6963.87	59.6374	6963.87	72.6738	6963.87	62.073	6963.87	62.0646	6963.87	64.8816	6963.87	73.7129	6963.87	51.3556	6963.87	48.3954	6963.87	59.9373	6963.87	67.1503	6963.87	61.1793	6963.87	67.0538	6963.87	69.5852	6963.87	62.597	6963.87	65.1884	6963.87	62.7631
7209.96	85.5027	7209.96	74.9648	7209.96	74.2716	7209.96	84.6402	7209.96	80.4484	7209.96	78.8788	7209.96	81.5856	7209.96	70.2411	7209.96	73.717	7209.96	77.7567	7209.96	81.7866	7209.96	74.526	7209.96	77.1866	7209.96	69.1088	7209.96	71.2846	7209.96	78.8813	7209.96	76.3252	7209.96	74.3706	7209.96	65.8123	7209.96	64.2983	7209.96	61.3895	7209.96	71.6666	7209.96	60.4601	7209.96	50.9898	7209.96	57.2218	7209.96	72.6236	7209.96	56.2292	7209.96	62.9536	7209.96	53.5901	7209.96	56.0145	7209.96	64.3765	7209.96	61.6639	7209.96	65.8962	7209.96	59.3892	7209.96	61.5169	7209.96	67.3299
7464.84	85.9514	7464.84	73.133	7464.84	74.6986	7464.84	84.988	7464.84	81.0088	7464.84	76.7761	7464.84	81.5642	7464.84	72.3657	7464.84	72.3386	7464.84	76.6124	7464.84	80.9137	7464.84	76.666	7464.84	70.2349	7464.84	64.1418	7464.84	71.3198	7464.84	78.2204	7464.84	74.5346	7464.84	65.258	7464.84	68.2943	7464.84	66.6064	7464.84	63.9356	7464.84	57.422	7464.84	62.6655	7464.84	68.8603	7464.84	61.7688	7464.84	71.1586	7464.84	59.7996	7464.84	65.7898	7464.84	52.6356	7464.84	61.9743	7464.84	67.7744	7464.84	48.7065	7464.84	63.3623	7464.84	61.7391	7464.84	59.6293	7464.84	68.4848
7727.05	85.2799	7727.05	73.9893	7727.05	77.0799	7727.05	85.0936	7727.05	80.6821	7727.05	77.0095	7727.05	83.0845	7727.05	71.9474	7727.05	72.9835	7727.05	78.1511	7727.05	81.8873	7727.05	75.5545	7727.05	61.2698	7727.05	69.9279	7727.05	75.2179	7727.05	76.4405	7727.05	75.0167	7727.05	73.8446	7727.05	73.9877	7727.05	71.559	7727.05	64.8493	7727.05	66.7488	7727.05	65.6566	7727.05	70.2049	7727.05	56.9555	7727.05	69.1137	7727.05	55.9978	7727.05	61.751	7727.05	58.3329	7727.05	67.1423	7727.05	68.9003	7727.05	57.1012	7727.05	62.7528	7727.05	59.9575	7727.05	55.0318	7727.05	66.3529
7999.51	84.9118	7999.51	78.2028	7999.51	77.9934	7999.51	83.9171	7999.51	79.4845	7999.51	79.15	7999.51	83.1154	7999.51	74.6331	7999.51	77.9302	7999.51	79.6573	7999.51	80.9616	7999.51	74.1557	7999.51	72.2158	7999.51	69.3072	7999.51	74.2903	7999.51	75.6514	7999.51	69.8998	7999.51	68.8871	7999.51	64.7705	7999.51	65.1348	7999.51	63.6823	7999.51	64.7825	7999.51	68.2112	7999.51	65.4609	7999.51	63.1777	7999.51	70.851	7999.51	59.6409	7999.51	54.0027	7999.51	64.2373	7999.51	71.6484	7999.51	63.0231	7999.51	57.7384	7999.51	61.2421	7999.51	63.5207	7999.51	62.4747	7999.51	62.248
8282.23	84.3927	8282.23	78.6809	8282.23	77.2198	8282.23	83.8302	8282.23	79.7685	8282.23	77.648	8282.23	82.772	8282.23	76.6761	8282.23	79.3356	8282.23	77.8873	8282.23	77.9314	8282.23	71.7018	8282.23	73.5309	8282.23	60.5561	8282.23	70.2853	8282.23	76.2076	8282.23	66.699	8282.23	66.2471	8282.23	65.293	8282.23	63.1899	8282.23	68.2489	8282.23	66.6013	8282.23	69.3815	8282.23	58.6624	8282.23	65.4919	8282.23	68.5927	8282.23	54.7038	8282.23	58.1604	8282.23	63.1454	8282.23	68.6913	8282.23	55.3842	8282.23	67.4235	8282.23	60.6262	8282.23	55.7079	8282.23	63.2977	8282.23	67.1982
8573.73	84.0737	8573.73	77.7862	8573.73	78.5256	8573.73	83.3303	8573.73	80.5962	8573.73	75.2582	8573.73	80.1926	8573.73	76.7573	8573.73	79.9652	8573.73	76.6826	8573.73	74.7186	8573.73	71.8177	8573.73	75.1708	8573.73	70.1096	8573.73	67.4542	8573.73	75.2462	8573.73	70.7913	8573.73	68.5366	8573.73	65.0416	8573.73	67.7696	8573.73	70.3285	8573.73	69.758	8573.73	67.1115	8573.73	63.2555	8573.73	62.8642	8573.73	66.9707	8573.73	55.8029	8573.73	64.8419	8573.73	50.3929	8573.73	63.7902	8573.73	64.0254	8573.73	69.7233	8573.73	62.5987	8573.73	48.8914	8573.73	58.8548	8573.73	66.8393
8876.95	84.4341	8876.95	80.3684	8876.95	79.5281	8876.95	81.9598	8876.95	82.0017	8876.95	73.2122	8876.95	79.5296	8876.95	75.9719	8876.95	80.1502	8876.95	76.3409	8876.95	75.2832	8876.95	67.9208	8876.95	74.5938	8876.95	72.2407	8876.95	69.0156	8876.95	72.722	8876.95	71.5104	8876.95	70.5742	8876.95	64.335	8876.95	60.0707	8876.95	69.9576	8876.95	59.7101	8876.95	67.2666	8876.95	58.7973	8876.95	65.2872	8876.95	63.3019	8876.95	57.0623	8876.95	63.6348	8876.95	41.2515	8876.95	54.155	8876.95	67.5795	8876.95	68.901	8876.95	58.8887	8876.95	54.9097	8876.95	53.2463	8876.95	62.2502
9188.96	83.6513	9188.96	81.3432	9188.96	80.6006	9188.96	81.5611	9188.96	82.0498	9188.96	77.0125	9188.96	79.2663	9188.96	77.3697	9188.96	79.9329	9188.96	76.4401	9188.96	76.6719	9188.96	66.6065	9188.96	72.3924	9188.96	64.6508	9188.96	67.9467	9188.96	75.4472	9188.96	66.3865	9188.96	63.2726	9188.96	61.0157	9188.96	66.0454	9188.96	65.8043	9188.96	69.3551	9188.96	64.5268	9188.96	58.427	9188.96	60.0947	9188.96	65.4574	9188.96	43.5753	9188.96	67.907	9188.96	56.6751	9188.96	59.6419	9188.96	67.3818	9188.96	68.0562	9188.96	58.8985	9188.96	64.7902	9188.96	59.8703	9188.96	52.8564
9514.16	82.5388	9514.16	81.5999	9514.16	79.4241	9514.16	81.572	9514.16	82.7248	9514.16	78.5073	9514.16	80.7028	9514.16	76.9421	9514.16	79.5028	9514.16	74.2139	9514.16	77.8774	9514.16	68.5914	9514.16	68.9989	9514.16	70.6643	9514.16	68.187	9514.16	72.59	9514.16	67.7907	9514.16	72.463	9514.16	56.9187	9514.16	67.9293	9514.16	63.1875	9514.16	71.7679	9514.16	65.0492	9514.16	64.0315	9514.16	58.8148	9514.16	62.9813	9514.16	54.9183	9514.16	67.6262	9514.16	54.0725	9514.16	64.806	9514.16	65.571	9514.16	67.4386	9514.16	62.5934	9514.16	66.3268	9514.16	58.4028	9514.16	63.4494
9849.61	83.2411	9849.61	80.8112	9849.61	80.5025	9849.61	81.3699	9849.61	82.6558	9849.61	78.1554	9849.61	81.2343	9849.61	76.1848	9849.61	76.8501	9849.61	73.9264	9849.61	80.396	9849.61	66.7577	9849.61	62.4126	9849.61	72.0899	9849.61	74.0299	9849.61	69.6637	9849.61	69.0469	9849.61	72.9677	9849.61	50.9562	9849.61	59.8632	9849.61	60.9766	9849.61	63.0459	9849.61	57.9838	9849.61	60.2514	9849.61	51.7146	9849.61	48.6817	9849.61	56.3936	9849.61	61.4757	9849.61	50.2446	9849.61	64.3265	9849.61	60.551	9849.61	68.1977	9849.61	54.897	9849.61	60.5534	9849.61	58.142	9849.61	67.1352
10196.8	83.6047	10196.8	80.9411	10196.8	82.6597	10196.8	81.3304	10196.8	81.422	10196.8	79.5747	10196.8	81.4262	10196.8	76.061	10196.8	73.7181	10196.8	74.0379	10196.8	80.4089	10196.8	63.9438	10196.8	74.7113	10196.8	68.4383	10196.8	72.5307	10196.8	72.1817	10196.8	56.5311	10196.8	68.3607	10196.8	59.2337	10196.8	58.8464	10196.8	57.16	10196.8	65.5491	10196.8	54.9853	10196.8	63.1987	10196.8	44.9821	10196.8	58.6884	10196.8	55.1113	10196.8	65.1677	10196.8	55.9535	10196.8	64.409	10196.8	63.4515	10196.8	53.5754	10196.8	63.4623	10196.8	62.7107	10196.8	58.8635	10196.8	65.7849
10555.7	83.7539	10555.7	82.1087	10555.7	83.4011	10555.7	81.6038	10555.7	82.1316	10555.7	79.6881	10555.7	82.4229	10555.7	75.6985	10555.7	72.5739	10555.7	73.2472	10555.7	79.1521	10555.7	63.9805	10555.7	77.5976	10555.7	72.5125	10555.7	70.4786	10555.7	66.4635	10555.7	59.571	10555.7	71.5753	10555.7	55.1453	10555.7	54.334	10555.7	56.4476	10555.7	65.6863	10555.7	55.171	10555.7	65.6492	10555.7	56.5882	10555.7	58.6229	10555.7	57.4865	10555.7	65.6007	10555.7	57.8367	10555.7	62.1173	10555.7	65.5518	10555.7	32.1867	10555.7	64.1193	10555.7	60.7666	10555.7	63.945	10555.7	55.2233
10927.7	83.3778	10927.7	83.3048	10927.7	83.0573	10927.7	82.3126	10927.7	82.6644	10927.7	80.8758	10927.7	82.5406	10927.7	74.6236	10927.7	75.4965	10927.7	74.1195	10927.7	76.4291	10927.7	57.0467	10927.7	78.2156	10927.7	71.8573	10927.7	65.2361	10927.7	67.1834	10927.7	47.9852	10927.7	67.8296	10927.7	59.4873	10927.7	63.0185	10927.7	57.4813	10927.7	62.4728	10927.7	58.4686	10927.7	61.1061	10927.7	61.0571	10927.7	54.4618	10927.7	49.4613	10927.7	59.1744	10927.7	51.4226	10927.7	55.8409	10927.7	58.302	10927.7	56.7809	10927.7	61.7916	10927.7	64.5033	10927.7	65.1729	10927.7	59.5237
11313	83.8249	11313	82.6113	11313	82.722	11313	82.3634	11313	81.7417	11313	80.544	11313	82.0664	11313	75.5214	11313	78.8908	11313	69.8028	11313	68.8906	11313	67.0874	11313	76.9726	11313	68.7518	11313	67.3601	11313	66.4055	11313	67.9333	11313	69.5148	11313	64.7456	11313	66.4661	11313	64.9963	11313	67.2487	11313	61.7977	11313	53.8851	11313	60.981	11313	61.4549	11313	47.71	11313	60.4229	11313	55.6141	11313	58.7351	11313	51.5848	11313	63.4028	11313	46.6973	11313	58.3318	11313	61.4702	11313	64.8963
11712.9	84.6214	11712.9	82.6433	11712.9	84.2189	11712.9	81.9187	11712.9	80.2552	11712.9	80.1528	11712.9	81.0932	11712.9	72.8564	11712.9	80.4035	11712.9	70.4257	11712.9	72.6669	11712.9	64.9433	11712.9	73.4131	11712.9	71.5401	11712.9	74.7306	11712.9	60.8904	11712.9	71.1162	11712.9	69.2332	11712.9	65.7834	11712.9	53.6162	11712.9	65.8272	11712.9	60.9269	11712.9	64.4834	11712.9	59.016	11712.9	61.803	11712.9	56.505	11712.9	55.4864	11712.9	54.44	11712.9	60.0717	11712.9	57.0205	11712.9	58.8845	11712.9	56.6241	11712.9	49.5928	11712.9	47.325	11712.9	57.9838	11712.9	63.749
12126	84.4988	12126	83.6189	12126	84.6938	12126	82.5067	12126	81.537	12126	79.8017	12126	80.0679	12126	72.9387	12126	80.1624	12126	70.6019	12126	76.4865	12126	64.8829	12126	64.1801	12126	68.9402	12126	73.8837	12126	50.9057	12126	70.0685	12126	60.0076	12126	63.5366	12126	65.0762	12126	66.1301	12126	65.0964	12126	64.0304	12126	61.9886	12126	56.3753	12126	56.3451	12126	58.4249	12126	52.0932	12126	58.2753	12126	48.1472	12126	48.453	12126	48.449	12126	60.2475	12126	53.5277	12126	50.0193	12126	62.6088
12553.7	83.5277	12553.7	83.6596	12553.7	84.2143	12553.7	82.8393	12553.7	81.9865	12553.7	79.9355	12553.7	78.5531	12553.7	73.0556	12553.7	79.0502	12553.7	71.4483	12553.7	76.1403	12553.7	67.2607	12553.7	61.8353	12553.7	71.2165	12553.7	70.7445	12553.7	61.5826	12553.7	65.9067	12553.7	63.9404	12553.7	62.7783	12553.7	62.8288	12553.7	64.1655	12553.7	60.2018	12553.7	64.9245	12553.7	61.6544	12553.7	58.0396	12553.7	54.7941	12553.7	60.7705	12553.7	49.1251	12553.7	49.53	12553.7	43.6921	12553.7	49.8041	12553.7	56.3106	12553.7	58.9153	12553.7	51.0644	12553.7	51.6275	12553.7	60.1121
12996.1	83.5654	12996.1	83.1246	12996.1	83.8641	12996.1	82.2189	12996.1	81.8621	12996.1	78.9411	12996.1	77.9767	12996.1	72.8133	12996.1	76.9612	12996.1	70.9375	12996.1	74.5582	12996.1	67.5435	12996.1	65.7748	12996.1	66.6549	12996.1	62.8115	12996.1	58.265	12996.1	61.688	12996.1	57.0358	12996.1	59.1391	12996.1	67.0008	12996.1	60.4681	12996.1	53.6177	12996.1	62.2045	12996.1	60.6547	12996.1	57.3485	12996.1	47.6691	12996.1	59.4864	12996.1	51.6403	12996.1	52.8404	12996.1	39.7479	12996.1	51.2546	12996.1	58.0075	12996.1	50.367	12996.1	51.8027	12996.1	54.0416	12996.1	60.1375
13454.6	83.6966	13454.6	83.5049	13454.6	83.6943	13454.6	81.7337	13454.6	82.1741	13454.6	77.752	13454.6	78.0699	13454.6	72.2291	13454.6	73.4615	13454.6	70.6789	13454.6	69.6644	13454.6	67.1182	13454.6	69.0164	13454.6	64.1826	13454.6	51.2896	13454.6	62.1661	13454.6	60.1904	13454.6	43.258	13454.6	56.0104	13454.6	53.0187	13454.6	58.0234	13454.6	62.1185	13454.6	57.0601	13454.6	55.1972	13454.6	49.0546	13454.6	50.7173	13454.6	54.3438	13454.6	42.9761	13454.6	54.7342	13454.6	47.2468	13454.6	54.9931	13454.6	60.7492	13454.6	43.7188	13454.6	58.005	13454.6	41.0929	13454.6	58.6631
13929.2	83.3252	13929.2	83.6236	13929.2	83.4298	13929.2	82.5018	13929.2	80.8563	13929.2	78.2653	13929.2	77.3559	13929.2	72.4409	13929.2	74.0702	13929.2	70.0964	13929.2	69.4911	13929.2	64.141	13929.2	66.4201	13929.2	59.4551	13929.2	60.2103	13929.2	64.7875	13929.2	59.3543	13929.2	61.8028	13929.2	54.6523	13929.2	61.6779	13929.2	56.4104	13929.2	56.8852	13929.2	47.8097	13929.2	52.7834	13929.2	38.9921	13929.2	51.4753	13929.2	45.6873	13929.2	51.3559	13929.2	50.1719	13929.2	46.3422	13929.2	54.4275	13929.2	61.717	13929.2	44.4982	13929.2	59.4538	13929.2	50.4649	13929.2	56.2107
14419.9	83.5406	14419.9	83.0998	14419.9	82.6246	14419.9	81.5505	14419.9	80.948	14419.9	77.7702	14419.9	75.5833	14419.9	71.2679	14419.9	72.2772	14419.9	67.847	14419.9	67.6136	14419.9	62.1708	14419.9	63.7827	14419.9	56.4441	14419.9	62.3568	14419.9	62.6025	14419.9	59.0134	14419.9	55.0725	14419.9	55.7986	14419.9	59.8391	14419.9	59.2176	14419.9	54.7048	14419.9	54.7978	14419.9	47.4805	14419.9	43.8718	14419.9	51.1852	14419.9	48.5973	14419.9	52.6738	14419.9	41.1571	14419.9	56.6742	14419.9	57.6157	14419.9	58.3222	14419.9	47.0242	14419.9	56.8653	14419.9	45.5085	14419.9	61.0374
14928.2	83.6805	14928.2	83.6925	14928.2	82.2658	14928.2	80.5239	14928.2	80.4949	14928.2	74.9361	14928.2	77.6287	14928.2	68.7259	14928.2	71.7118	14928.2	66.0136	14928.2	67.2025	14928.2	63.7341	14928.2	62.1515	14928.2	50.3172	14928.2	60.2146	14928.2	62.6737	14928.2	56.0105	14928.2	61.4974	14928.2	51.5118	14928.2	61.5731	14928.2	57.3467	14928.2	56.5911	14928.2	54.9378	14928.2	56.209	14928.2	53.3403	14928.2	55.0248	14928.2	45.8746	14928.2	56.2931	14928.2	44.7111	14928.2	58.2385	14928.2	53.6704	14928.2	56.6541	14928.2	51.6054	14928.2	57.9625	14928.2	57.5889	14928.2	64.0188
15455.6	82.2591	15455.6	82.048	15455.6	81.7685	15455.6	80.5526	15455.6	79.397	15455.6	76.2122	15455.6	76.0298	15455.6	68.8828	15455.6	74.0283	15455.6	64.0665	15455.6	66.8983	15455.6	60.4964	15455.6	57.1226	15455.6	60.8285	15455.6	59.0523	15455.6	63.3138	15455.6	47.677	15455.6	61.765	15455.6	30.6052	15455.6	59.7332	15455.6	43.2283	15455.6	59.0061	15455.6	44.1971	15455.6	58.6987	15455.6	46.4702	15455.6	58.6461	15455.6	44.4425	15455.6	62.1808	15455.6	48.5468	15455.6	58.6102	15455.6	56.1132	15455.6	59.278	15455.6	55.6808	15455.6	57.9855	15455.6	57.8178	15455.6	57.111
16000.5	82.2466	16000.5	81.2155	16000.5	80.8369	16000.5	79.1782	16000.5	79.213	16000.5	74.443	16000.5	76.1951	16000.5	65.3622	16000.5	70.7166	16000.5	62.9063	16000.5	65.2877	16000.5	59.3238	16000.5	63.1077	16000.5	59.4219	16000.5	57.8393	16000.5	65.5915	16000.5	50.9995	16000.5	62.574	16000.5	47.5754	16000.5	58.527	16000.5	48.8992	16000.5	61.1262	16000.5	43.7569	16000.5	55.8962	16000.5	39.59	16000.5	53.4696	16000.5	43.6061	16000.5	58.8652	16000.5	47.9143	16000.5	54.8512	16000.5	48.6465	16000.5	55.1707	16000.5	37.8716	16000.5	60.1637	16000.5	53.7858	16000.5	58.534
16564.5	81.9489	16564.5	81.5744	16564.5	80.5248	16564.5	78.3529	16564.5	78.8152	16564.5	72.9957	16564.5	73.9712	16564.5	65.4233	16564.5	68.9429	16564.5	61.3853	16564.5	66.9498	16564.5	60.1219	16564.5	60.3906	16564.5	59.917	16564.5	57.2178	16564.5	63.0299	16564.5	46.0861	16564.5	63.5854	16564.5	46.0794	16564.5	54.3298	16564.5	47.4382	16564.5	61.8964	16564.5	45.7003	16564.5	43.8213	16564.5	45.375	16564.5	50.6272	16564.5	42.0113	16564.5	52.3224	16564.5	50.4555	16564.5	54.3892	16564.5	48.7685	16564.5	51.3176	16564.5	47.8425	16564.5	61.1425	16564.5	46.0205	16564.5	60.1152
17148.9	80.8924	17148.9	80.8493	17148.9	79.756	17148.9	78.6901	17148.9	75.6022	17148.9	72.9747	17148.9	74.2471	17148.9	59.7884	17148.9	68.7635	17148.9	58.3642	17148.9	64.528	17148.9	51.5756	17148.9	63.3028	17148.9	63.6144	17148.9	53.2314	17148.9	65.0325	17148.9	51.8754	17148.9	61.5549	17148.9	49.0524	17148.9	55.0162	17148.9	50.5397	17148.9	61.8609	17148.9	41.1516	17148.9	48.3983	17148.9	48.1392	17148.9	51.9225	17148.9	41.1716	17148.9	38.8799	17148.9	46.7609	17148.9	50.3702	17148.9	46.3073	17148.9	56.4246	17148.9	47.5176	17148.9	57.7896	17148.9	43.0753	17148.9	60.5827
17752.4	80.7565	17752.4	80.089	17752.4	78.6154	17752.4	76.922	17752.4	76.6216	17752.4	69.6259	17752.4	71.4918	17752.4	59.3995	17752.4	66.3308	17752.4	62.5085	17752.4	64.9186	17752.4	63.4829	17752.4	59.5785	17752.4	48.5466	17752.4	40.8955	17752.4	65.543	17752.4	53.6975	17752.4	63.035	17752.4	48.4242	17752.4	45.9616	17752.4	49.9194	17752.4	55.8284	17752.4	44.4603	17752.4	48.1528	17752.4	50.3062	17752.4	54.6035	17752.4	36.3606	17752.4	41.4369	17752.4	34.6283	17752.4	56.9911	17752.4	53.2314	17752.4	59.2433	17752.4	52.523	17752.4	55.2209	17752.4	54.0001	17752.4	52.8686
18379.4	79.623	18379.4	78.7841	18379.4	78.3883	18379.4	76.3829	18379.4	74.6508	18379.4	68.46	18379.4	69.4978	18379.4	55.2688	18379.4	68.0766	18379.4	59.8048	18379.4	62.0221	18379.4	58.6327	18379.4	62.4431	18379.4	59.087	18379.4	54.5759	18379.4	59.8987	18379.4	53.5876	18379.4	60.4919	18379.4	46.4377	18379.4	52.5395	18379.4	48.9177	18379.4	54.3001	18379.4	47.7668	18379.4	49.2369	18379.4	48.6693	18379.4	43.528	18379.4	9.57571	18379.4	48.8324	18379.4	47.076	18379.4	47.7704	18379.4	50.4016	18379.4	56.3221	18379.4	44.741	18379.4	55.7011	18379.4	49.4077	18379.4	48.5104
19026.9	78.8487	19026.9	77.6259	19026.9	77.3898	19026.9	74.3076	19026.9	74.4909	19026.9	64.3193	19026.9	69.5784	19026.9	59.6433	19026.9	66.1362	19026.9	61.1886	19026.9	61.9829	19026.9	58.1977	19026.9	56.2915	19026.9	58.3425	19026.9	53.8657	19026.9	61.4422	19026.9	51.0809	19026.9	58.4984	19026.9	47.2859	19026.9	50.8765	19026.9	42.3653	19026.9	41.6615	19026.9	29.2749	19026.9	38.0379	19026.9	36.4584	19026.9	43.5823	19026.9	31.4498	19026.9	52.4258	19026.9	37.6455	19026.9	46.4998	19026.9	40.2907	19026.9	51.1229	19026.9	47.667	19026.9	50.156	19026.9	49.6731	19026.9	45.3344
19697.8	77.0548	19697.8	76.371	19697.8	76.9765	19697.8	72.5574	19697.8	72.5671	19697.8	62.2973	19697.8	69.656	19697.8	58.3975	19697.8	64.6408	19697.8	58.1897	19697.8	63.0931	19697.8	57.3293	19697.8	56.2134	19697.8	51.7175	19697.8	50.9221	19697.8	59.5132	19697.8	43.3501	19697.8	54.274	19697.8	43.8916	19697.8	49.7466	19697.8	43.0162	19697.8	53.9613	19697.8	42.8921	19697.8	43.0792	19697.8	42.0236	19697.8	51.446	19697.8	31.4504	19697.8	52.641	19697.8	23.3761	19697.8	48.3716	19697.8	35.5312	19697.8	46.9771	19697.8	48.2009	19697.8	47.9104	19697.8	47.642	19697.8	47.7451
19999.5	76.3609	19999.5	74.8743	19999.5	75.9249	19999.5	72.0069	19999.5	71.9837	19999.5	61.3529	19999.5	69.6026	19999.5	59.526	19999.5	65.3578	19999.5	59.4912	19999.5	63.9998	19999.5	58.0777	19999.5	58.7218	19999.5	54.0176	19999.5	49.6957	19999.5	59.3221	19999.5	47.4478	19999.5	36.5678	19999.5	40.7383	19999.5	50.6219	19999.5	36.6703	19999.5	53.7984	19999.5	38.5754	19999.5	47.3094	19999.5	43.1842	19999.5	52.1323	19999.5	38.5444	19999.5	50.9729	19999.5	47.403	19999.5	45.0876	19999.5	42.839	19999.5	46.5862	19999.5	52.5217	19999.5	52.2739	19999.5	33.3108	19999.5	39.2631
