"SPL Horizontal"
"On-Axis"		"10°"		"-10°"		"20°"		"-20°"		"30°"		"-30°"		"40°"		"-40°"		"50°"		"-50°"		"60°"		"-60°"		"70°"		"-70°"		"80°"		"-80°"		"90°"		"-90°"		"100°"		"-100°"		"110°"		"-110°"		"120°"		"-120°"		"130°"		"-130°"		"140°"		"-140°"		"150°"		"-150°"		"160°"		"-160°"		"170°"		"-170°"		"180°"
"Frequency / Hz"	"Sound Pressure Level / dB (re 20 µPa/V)  [2.83V at 1m]"	"Frequency / Hz"	"Sound Pressure Level / dB (re 20 µPa/V)  [2.83V at 1m]"	"Frequency / Hz"	"Sound Pressure Level / dB (re 20 µPa/V)  [2.83V at 1m]"	"Frequency / Hz"	"Sound Pressure Level / dB (re 20 µPa/V)  [2.83V at 1m]"	"Frequency / Hz"	"Sound Pressure Level / dB (re 20 µPa/V)  [2.83V at 1m]"	"Frequency / Hz"	"Sound Pressure Level / dB (re 20 µPa/V)  [2.83V at 1m]"	"Frequency / Hz"	"Sound Pressure Level / dB (re 20 µPa/V)  [2.83V at 1m]"	"Frequency / Hz"	"Sound Pressure Level / dB (re 20 µPa/V)  [2.83V at 1m]"	"Frequency / Hz"	"Sound Pressure Level / dB (re 20 µPa/V)  [2.83V at 1m]"	"Frequency / Hz"	"Sound Pressure Level / dB (re 20 µPa/V)  [2.83V at 1m]"	"Frequency / Hz"	"Sound Pressure Level / dB (re 20 µPa/V)  [2.83V at 1m]"	"Frequency / Hz"	"Sound Pressure Level / dB (re 20 µPa/V)  [2.83V at 1m]"	"Frequency / Hz"	"Sound Pressure Level / dB (re 20 µPa/V)  [2.83V at 1m]"	"Frequency / Hz"	"Sound Pressure Level / dB (re 20 µPa/V)  [2.83V at 1m]"	"Frequency / Hz"	"Sound Pressure Level / dB (re 20 µPa/V)  [2.83V at 1m]"	"Frequency / Hz"	"Sound Pressure Level / dB (re 20 µPa/V)  [2.83V at 1m]"	"Frequency / Hz"	"Sound Pressure Level / dB (re 20 µPa/V)  [2.83V at 1m]"	"Frequency / Hz"	"Sound Pressure Level / dB (re 20 µPa/V)  [2.83V at 1m]"	"Frequency / Hz"	"Sound Pressure Level / dB (re 20 µPa/V)  [2.83V at 1m]"	"Frequency / Hz"	"Sound Pressure Level / dB (re 20 µPa/V)  [2.83V at 1m]"	"Frequency / Hz"	"Sound Pressure Level / dB (re 20 µPa/V)  [2.83V at 1m]"	"Frequency / Hz"	"Sound Pressure Level / dB (re 20 µPa/V)  [2.83V at 1m]"	"Frequency / Hz"	"Sound Pressure Level / dB (re 20 µPa/V)  [2.83V at 1m]"	"Frequency / Hz"	"Sound Pressure Level / dB (re 20 µPa/V)  [2.83V at 1m]"	"Frequency / Hz"	"Sound Pressure Level / dB (re 20 µPa/V)  [2.83V at 1m]"	"Frequency / Hz"	"Sound Pressure Level / dB (re 20 µPa/V)  [2.83V at 1m]"	"Frequency / Hz"	"Sound Pressure Level / dB (re 20 µPa/V)  [2.83V at 1m]"	"Frequency / Hz"	"Sound Pressure Level / dB (re 20 µPa/V)  [2.83V at 1m]"	"Frequency / Hz"	"Sound Pressure Level / dB (re 20 µPa/V)  [2.83V at 1m]"	"Frequency / Hz"	"Sound Pressure Level / dB (re 20 µPa/V)  [2.83V at 1m]"	"Frequency / Hz"	"Sound Pressure Level / dB (re 20 µPa/V)  [2.83V at 1m]"	"Frequency / Hz"	"Sound Pressure Level / dB (re 20 µPa/V)  [2.83V at 1m]"	"Frequency / Hz"	"Sound Pressure Level / dB (re 20 µPa/V)  [2.83V at 1m]"	"Frequency / Hz"	"Sound Pressure Level / dB (re 20 µPa/V)  [2.83V at 1m]"	"Frequency / Hz"	"Sound Pressure Level / dB (re 20 µPa/V)  [2.83V at 1m]"	"Frequency / Hz"	"Sound Pressure Level / dB (re 20 µPa/V)  [2.83V at 1m]"
20.5078	62.6782	20.5078	62.6912	20.5078	62.6133	20.5078	62.6528	20.5078	62.4965	20.5078	62.5634	20.5078	62.3281	20.5078	62.4244	20.5078	62.1087	20.5078	62.237	20.5078	61.8396	20.5078	62.0035	20.5078	61.5229	20.5078	61.7265	20.5078	61.1623	20.5078	61.4094	20.5078	60.7635	20.5078	61.0565	20.5078	60.3349	20.5078	60.6734	20.5078	59.8884	20.5078	60.2674	20.5078	59.4395	20.5078	59.848	20.5078	59.0073	20.5078	59.4272	20.5078	58.6135	20.5078	59.0199	20.5078	58.2807	20.5078	58.6436	20.5078	58.0297	20.5078	58.318	20.5078	57.877	20.5078	58.0628	20.5078	57.8321	20.5078	57.8963
21.9727	63.7319	21.9727	63.7381	21.9727	63.6529	21.9727	63.6723	21.9727	63.5017	21.9727	63.5364	21.9727	63.2803	21.9727	63.3336	21.9727	62.9923	21.9727	63.0684	21.9727	62.6432	21.9727	62.7463	21.9727	62.2404	21.9727	62.3744	21.9727	61.7942	21.9727	61.9617	21.9727	61.3182	21.9727	61.5191	21.9727	60.8294	21.9727	61.0602	21.9727	60.3487	21.9727	60.601	21.9727	59.8984	21.9727	60.1591	21.9727	59.5001	21.9727	59.7526	21.9727	59.1703	21.9727	59.3975	21.9727	58.918	21.9727	59.1053	21.9727	58.744	21.9727	58.8815	21.9727	58.643	21.9727	58.7263	21.9727	58.6085	21.9727	58.6363
23.4375	63.1452	23.4375	63.1477	23.4375	63.0588	23.4375	63.0673	23.4375	62.8884	23.4375	62.9061	23.4375	62.6356	23.4375	62.6677	23.4375	62.3034	23.4375	62.3574	23.4375	61.8974	23.4375	61.9822	23.4375	61.4267	23.4375	61.5521	23.4375	60.9051	23.4375	61.0803	23.4375	60.3535	23.4375	60.5844	23.4375	59.7999	23.4375	60.0861	23.4375	59.279	23.4375	59.6103	23.4375	58.8271	23.4375	59.1829	23.4375	58.4735	23.4375	58.8253	23.4375	58.2317	23.4375	58.5494	23.4375	58.0948	23.4375	58.3545	23.4375	58.0392	23.4375	58.2275	23.4375	58.0354	23.4375	58.148	23.4375	58.0588	23.4375	58.096
24.9023	62.8198	24.9023	62.8151	24.9023	62.7409	24.9023	62.728	24.9023	62.579	24.9023	62.5618	24.9023	62.3371	24.9023	62.3217	24.9023	62.0213	24.9023	62.0156	24.9023	61.6413	24.9023	61.6545	24.9023	61.2125	24.9023	61.2535	24.9023	60.7572	24.9023	60.8323	24.9023	60.3048	24.9023	60.4158	24.9023	59.8911	24.9023	60.032	24.9023	59.5524	24.9023	59.7091	24.9023	59.3162	24.9023	59.4693	24.9023	59.192	24.9023	59.3227	24.9023	59.1669	24.9023	59.2632	24.9023	59.2101	24.9023	59.2704	24.9023	59.2836	24.9023	59.3147	24.9023	59.3529	24.9023	59.3656	24.9023	59.3943	24.9023	59.3974
26.3672	60.6906	26.3672	60.6272	26.3672	60.6128	26.3672	60.4222	26.3672	60.3926	26.3672	60.0737	26.3672	60.0282	26.3672	59.5784	26.3672	59.5172	26.3672	58.9322	26.3672	58.8593	26.3672	58.1327	26.3672	58.0595	26.3672	57.1834	26.3672	57.1366	26.3672	56.1053	26.3672	56.1375	26.3672	54.9588	26.3672	55.1584	26.3672	53.8779	26.3672	54.3572	26.3672	53.0857	26.3672	53.9118	26.3672	52.8057	26.3672	53.9044	26.3672	53.0709	26.3672	54.2449	26.3672	53.6831	26.3672	54.7432	26.3672	54.3899	26.3672	55.2268	26.3672	55.017	26.3672	55.5857	26.3672	55.4753	26.3672	55.7612	26.3672	55.7268
27.832	60.8697	27.832	60.8471	27.832	60.7934	27.832	60.7273	27.832	60.6199	27.832	60.5157	27.832	60.3558	27.832	60.2218	27.832	60.0145	27.832	59.8605	27.832	59.6182	27.832	59.4538	27.832	59.2012	27.832	59.0327	27.832	58.8107	27.832	58.6385	27.832	58.5022	27.832	58.3191	27.832	58.3272	27.832	58.1205	27.832	58.3139	27.832	58.0725	27.832	58.4535	27.832	58.1762	27.832	58.7035	27.832	58.4031	27.832	59.0047	27.832	58.7047	27.832	59.2991	27.832	59.0279	27.832	59.541	27.832	59.3255	27.832	59.6996	27.832	59.5613	27.832	59.7579	27.832	59.7102
29.2969	57.9167	29.2969	57.8764	29.2969	57.8583	29.2969	57.7391	29.2969	57.7092	29.2969	57.5169	29.2969	57.4904	29.2969	57.2338	29.2969	57.239	29.2969	56.9283	29.2969	57.0118	29.2969	56.6565	29.2969	56.881	29.2969	56.4872	29.2969	56.9176	29.2969	56.4867	29.2969	57.1624	29.2969	56.6943	29.2969	57.6038	29.2969	57.1024	29.2969	58.1835	29.2969	57.6609	29.2969	58.824	29.2969	58.2999	29.2969	59.4538	29.2969	58.9526	29.2969	60.0196	29.2969	59.5666	29.2969	60.4858	29.2969	60.1051	29.2969	60.8314	29.2969	60.5434	29.2969	61.0448	29.2969	60.8653	29.2969	61.1211	29.2969	61.0601
30.7617	53.8443	30.7617	53.7657	30.7617	53.8586	30.7617	53.6281	30.7617	53.8399	30.7617	53.4741	30.7617	53.8555	30.7617	53.3841	30.7617	54.0001	30.7617	53.4646	30.7617	54.3656	30.7617	53.8091	30.7617	54.9936	30.7617	54.4464	30.7617	55.8489	30.7617	55.3222	30.7617	56.8421	30.7617	56.3348	30.7617	57.8754	30.7617	57.3851	30.7617	58.8722	30.7617	58.4007	30.7617	59.7827	30.7617	59.3373	30.7617	60.5781	30.7617	60.1695	30.7617	61.2426	30.7617	60.8836	30.7617	61.7682	30.7617	61.472	30.7617	62.1511	30.7617	61.9297	30.7617	62.3902	30.7617	62.2532	30.7617	62.4859	30.7617	62.4395
32.2266	52.2628	32.2266	52.2117	32.2266	52.539	32.2266	52.3937	32.2266	53.0392	32.2266	52.82	32.2266	53.7563	32.2266	53.4854	32.2266	54.6611	32.2266	54.3539	32.2266	55.7	32.2266	55.3635	32.2266	56.808	32.2266	56.4441	32.2266	57.9245	32.2266	57.5354	32.2266	59.002	32.2266	58.5929	32.2266	60.0077	32.2266	59.5872	32.2266	60.9207	32.2266	60.5003	32.2266	61.7281	32.2266	61.3213	32.2266	62.4218	32.2266	62.0432	32.2266	62.9968	32.2266	62.6613	32.2266	63.4499	32.2266	63.1716	32.2266	63.779	32.2266	63.5703	32.2266	63.9833	32.2266	63.8539	32.2266	64.0629	32.2266	64.0191
33.6914	56.5313	33.6914	56.5331	33.6914	56.7435	33.6914	56.746	33.6914	57.1526	33.6914	57.1486	33.6914	57.7262	33.6914	57.7056	33.6914	58.4225	33.6914	58.3755	33.6914	59.198	33.6914	59.117	33.6914	60.0123	33.6914	59.8935	33.6914	60.8314	33.6914	60.6754	33.6914	61.6282	33.6914	61.4391	33.6914	62.3818	33.6914	62.1672	33.6914	63.0767	33.6914	62.8463	33.6914	63.7009	33.6914	63.4661	33.6914	64.2456	33.6914	64.0183	33.6914	64.7035	33.6914	64.4961	33.6914	65.0692	33.6914	64.8934	33.6914	65.3387	33.6914	65.2048	33.6914	65.5095	33.6914	65.4256	33.6914	65.5803	33.6914	65.5518
35.1562	61.1125	35.1562	61.1135	35.1562	61.231	35.1562	61.2323	35.1562	61.4635	35.1562	61.4602	35.1562	61.7974	35.1562	61.7827	35.1562	62.2152	35.1562	62.1821	35.1562	62.6963	35.1562	62.639	35.1562	63.219	35.1562	63.1341	35.1562	63.7626	35.1562	63.6496	35.1562	64.3082	35.1562	64.1694	35.1562	64.8392	35.1562	64.6796	35.1562	65.3412	35.1562	65.1679	35.1562	65.8023	35.1562	65.6237	35.1562	66.2122	35.1562	66.0379	35.1562	66.5622	35.1562	66.402	35.1562	66.8454	35.1562	66.7087	35.1562	67.056	35.1562	66.9515	35.1562	67.1904	35.1562	67.1248	35.1562	67.2466	35.1562	67.2242
36.6211	64.7634	36.6211	64.7639	36.6211	64.816	36.6211	64.8158	36.6211	64.9219	36.6211	64.9159	36.6211	65.0794	36.6211	65.0601	36.6211	65.2841	36.6211	65.2433	36.6211	65.53	36.6211	65.4599	36.6211	65.8085	36.6211	65.7035	36.6211	66.1099	36.6211	65.9674	36.6211	66.4235	36.6211	66.2445	36.6211	66.7385	36.6211	66.5276	36.6211	67.044	36.6211	66.8096	36.6211	67.3299	36.6211	67.0832	36.6211	67.5867	36.6211	67.3413	36.6211	67.8064	36.6211	67.5771	36.6211	67.9819	36.6211	67.7838	36.6211	68.1081	36.6211	67.9551	36.6211	68.1818	36.6211	68.0851	36.6211	68.2017	36.6211	68.1686
38.0859	66.9107	38.0859	66.929	38.0859	66.9522	38.0859	67.0048	38.0859	67.0537	38.0859	67.1335	38.0859	67.2122	38.0859	67.3092	38.0859	67.4223	38.0859	67.5251	38.0859	67.6762	38.0859	67.7736	38.0859	67.9643	38.0859	68.0472	38.0859	68.276	38.0859	68.338	38.0859	68.6005	38.0859	68.6385	38.0859	68.9271	38.0859	68.9409	38.0859	69.2456	38.0859	69.2377	38.0859	69.5465	38.0859	69.5213	38.0859	69.8211	38.0859	69.7844	38.0859	70.0615	38.0859	70.0197	38.0859	70.2607	38.0859	70.2201	38.0859	70.4129	38.0859	70.3793	38.0859	70.5139	38.0859	70.4918	38.0859	70.561	38.0859	70.5533
39.5508	69.745	39.5508	69.7507	39.5508	69.7822	39.5508	69.7983	39.5508	69.8617	39.5508	69.8857	39.5508	69.9817	39.5508	70.0101	39.5508	70.1387	39.5508	70.1675	39.5508	70.3277	39.5508	70.3534	39.5508	70.5426	39.5508	70.5623	39.5508	70.7762	39.5508	70.7884	39.5508	71.0211	39.5508	71.0254	39.5508	71.2695	39.5508	71.2668	39.5508	71.5139	39.5508	71.5055	39.5508	71.747	39.5508	71.7348	39.5508	71.9619	39.5508	71.9479	39.5508	72.1522	39.5508	72.1381	39.5508	72.312	39.5508	72.2994	39.5508	72.4362	39.5508	72.4262	39.5508	72.5206	39.5508	72.5142	39.5508	72.5624	39.5508	72.5602
41.0156	71.7483	41.0156	71.7394	41.0156	71.7855	41.0156	71.7589	41.0156	71.8498	41.0156	71.8062	41.0156	71.9394	41.0156	71.8794	41.0156	72.0516	41.0156	71.9763	41.0156	72.1828	41.0156	72.0937	41.0156	72.3294	41.0156	72.2279	41.0156	72.4869	41.0156	72.375	41.0156	72.6507	41.0156	72.531	41.0156	72.8161	41.0156	72.6914	41.0156	72.9782	41.0156	72.8522	41.0156	73.1322	41.0156	73.0089	41.0156	73.2732	41.0156	73.1572	41.0156	73.3965	41.0156	73.2925	41.0156	73.4978	41.0156	73.4107	41.0156	73.5735	41.0156	73.5076	41.0156	73.6206	41.0156	73.5795	41.0156	73.6374	41.0156	73.6234
42.4805	73.3834	42.4805	73.3732	42.4805	73.4117	42.4805	73.3812	42.4805	73.4574	42.4805	73.4073	42.4805	73.5192	42.4805	73.4505	42.4805	73.5952	42.4805	73.5094	42.4805	73.6834	42.4805	73.5823	42.4805	73.7812	42.4805	73.6669	42.4805	73.8856	42.4805	73.7608	42.4805	73.9938	42.4805	73.8615	42.4805	74.1025	42.4805	73.9662	42.4805	74.2085	42.4805	74.0722	42.4805	74.3086	42.4805	74.1766	42.4805	74.3996	42.4805	74.2764	42.4805	74.4783	42.4805	74.3688	42.4805	74.542	42.4805	74.4507	42.4805	74.588	42.4805	74.5193	42.4805	74.6146	42.4805	74.5719	42.4805	74.6207	42.4805	74.6062
43.9453	74.7259	43.9453	74.7152	43.9453	74.7482	43.9453	74.7164	43.9453	74.7813	43.9453	74.7294	43.9453	74.8243	43.9453	74.7541	43.9453	74.8761	43.9453	74.7897	43.9453	74.9352	43.9453	74.8351	43.9453	75.0001	43.9453	74.8891	43.9453	75.069	43.9453	74.9501	43.9453	75.14	43.9453	75.0163	43.9453	75.2112	43.9453	75.0859	43.9453	75.2805	43.9453	75.157	43.9453	75.3459	43.9453	75.2277	43.9453	75.4051	43.9453	75.2959	43.9453	75.456	43.9453	75.3597	43.9453	75.4967	43.9453	75.417	43.9453	75.5255	43.9453	75.4657	43.9453	75.541	43.9453	75.5039	43.9453	75.5424	43.9453	75.5299
45.4102	75.9033	45.4102	75.8921	45.4102	75.9204	45.4102	75.8871	45.4102	75.9429	45.4102	75.8885	45.4102	75.9704	45.4102	75.8964	45.4102	76.0021	45.4102	75.9107	45.4102	76.0374	45.4102	75.9309	45.4102	76.0754	45.4102	75.9566	45.4102	76.115	45.4102	75.9868	45.4102	76.155	45.4102	76.0208	45.4102	76.1943	45.4102	76.0575	45.4102	76.2314	45.4102	76.0959	45.4102	76.2652	45.4102	76.135	45.4102	76.2943	45.4102	76.1738	45.4102	76.3176	45.4102	76.2112	45.4102	76.3343	45.4102	76.2462	45.4102	76.3435	45.4102	76.2775	45.4102	76.345	45.4102	76.3041	45.4102	76.3386	45.4102	76.3248
46.875	76.9949	46.875	76.985	46.875	77.0049	46.875	76.9758	46.875	77.0148	46.875	76.9677	46.875	77.0243	46.875	76.961	46.875	77.0333	46.875	76.9562	46.875	77.0416	46.875	76.9534	46.875	77.0492	46.875	76.9527	46.875	77.0558	46.875	76.954	46.875	77.0612	46.875	76.9569	46.875	77.0653	46.875	76.9614	46.875	77.0679	46.875	76.967	46.875	77.0686	46.875	76.9736	46.875	77.0675	46.875	76.9811	46.875	77.0645	46.875	76.9894	46.875	77.0597	46.875	76.9983	46.875	77.0533	46.875	77.0077	46.875	77.0455	46.875	77.0174	46.875	77.0367	46.875	77.0272
48.3398	77.9217	48.3398	77.905	48.3398	77.934	48.3398	77.8846	48.3398	77.941	48.3398	77.8615	48.3398	77.9424	48.3398	77.8369	48.3398	77.938	48.3398	77.8114	48.3398	77.9279	48.3398	77.7859	48.3398	77.9123	48.3398	77.7608	48.3398	77.8917	48.3398	77.7365	48.3398	77.8669	48.3398	77.7132	48.3398	77.8385	48.3398	77.6911	48.3398	77.8075	48.3398	77.6704	48.3398	77.7751	48.3398	77.6515	48.3398	77.7424	48.3398	77.6349	48.3398	77.7107	48.3398	77.6211	48.3398	77.6814	48.3398	77.6109	48.3398	77.6557	48.3398	77.605	48.3398	77.6346	48.3398	77.604	48.3398	77.6187	48.3398	77.6085
51.2695	78.9324	51.2695	78.9173	51.2695	78.942	51.2695	78.8972	51.2695	78.9455	51.2695	78.873	51.2695	78.9425	51.2695	78.8456	51.2695	78.9328	51.2695	78.8156	51.2695	78.9163	51.2695	78.7837	51.2695	78.8933	51.2695	78.7504	51.2695	78.8642	51.2695	78.7163	51.2695	78.8295	51.2695	78.6816	51.2695	78.7901	51.2695	78.6468	51.2695	78.7471	51.2695	78.6125	51.2695	78.702	51.2695	78.5795	51.2695	78.6565	51.2695	78.5489	51.2695	78.6125	51.2695	78.5219	51.2695	78.572	51.2695	78.5	51.2695	78.5368	51.2695	78.4847	51.2695	78.5088	51.2695	78.4772	51.2695	78.4891	51.2695	78.4785
52.7344	79.3467	52.7344	79.3321	52.7344	79.3536	52.7344	79.3106	52.7344	79.3525	52.7344	79.2829	52.7344	79.3432	52.7344	79.2499	52.7344	79.3257	52.7344	79.2125	52.7344	79.3003	52.7344	79.1716	52.7344	79.2675	52.7344	79.128	52.7344	79.2279	52.7344	79.0825	52.7344	79.1824	52.7344	79.0359	52.7344	79.1321	52.7344	78.989	52.7344	79.0783	52.7344	78.9427	52.7344	79.0228	52.7344	78.8983	52.7344	78.9674	52.7344	78.857	52.7344	78.9144	52.7344	78.8207	52.7344	78.8659	52.7344	78.791	52.7344	78.8243	52.7344	78.7697	52.7344	78.7915	52.7344	78.7584	52.7344	78.7691	52.7344	78.758
54.1992	79.721	54.1992	79.7089	54.1992	79.723	54.1992	79.6874	54.1992	79.7148	54.1992	79.6571	54.1992	79.6964	54.1992	79.6193	54.1992	79.6685	54.1992	79.5749	54.1992	79.6317	54.1992	79.5253	54.1992	79.5869	54.1992	79.4717	54.1992	79.5353	54.1992	79.4151	54.1992	79.4779	54.1992	79.3566	54.1992	79.4162	54.1992	79.2975	54.1992	79.3517	54.1992	79.2389	54.1992	79.2862	54.1992	79.1824	54.1992	79.2218	54.1992	79.1297	54.1992	79.161	54.1992	79.0827	54.1992	79.1062	54.1992	79.0436	54.1992	79.06	54.1992	79.0144	54.1992	79.0246	54.1992	78.9969	54.1992	79.0017	54.1992	78.9924
55.6641	80.0722	55.6641	80.0586	55.6641	80.0722	55.6641	80.0322	55.6641	80.0586	55.6641	79.9939	55.6641	80.0315	55.6641	79.9452	55.6641	79.9918	55.6641	79.8875	55.6641	79.9404	55.6641	79.8226	55.6641	79.8789	55.6641	79.7519	55.6641	79.8087	55.6641	79.677	55.6641	79.7317	55.6641	79.5995	55.6641	79.6497	55.6641	79.521	55.6641	79.5648	55.6641	79.4431	55.6641	79.4794	55.6641	79.3679	55.6641	79.3963	55.6641	79.2975	55.6641	79.3183	55.6641	79.2346	55.6641	79.2486	55.6641	79.1819	55.6641	79.1905	55.6641	79.1419	55.6641	79.1465	55.6641	79.1171	55.6641	79.119	55.6641	79.1092
58.5938	80.4515	58.5938	80.4343	58.5938	80.4526	58.5938	80.402	58.5938	80.4373	58.5938	80.3558	58.5938	80.4058	58.5938	80.2972	58.5938	80.3588	58.5938	80.2281	58.5938	80.2975	58.5938	80.1504	58.5938	80.2233	58.5938	80.0657	58.5938	80.1381	58.5938	79.9759	58.5938	80.044	58.5938	79.8828	58.5938	79.9434	58.5938	79.7882	58.5938	79.8389	58.5938	79.694	58.5938	79.7336	58.5938	79.6026	58.5938	79.631	58.5938	79.5168	58.5938	79.5349	58.5938	79.4395	58.5938	79.4492	58.5938	79.374	58.5938	79.3779	58.5938	79.3239	58.5938	79.3246	58.5938	79.2921	58.5938	79.2918	58.5938	79.281
60.0586	80.5603	60.0586	80.5406	60.0586	80.5625	60.0586	80.5044	60.0586	80.547	60.0586	80.4532	60.0586	80.5141	60.0586	80.3889	60.0586	80.4645	60.0586	80.3134	60.0586	80.3996	60.0586	80.229	60.0586	80.3213	60.0586	80.1378	60.0586	80.2316	60.0586	80.0419	60.0586	80.1329	60.0586	79.9433	60.0586	80.0278	60.0586	79.844	60.0586	79.919	60.0586	79.7461	60.0586	79.8096	60.0586	79.652	60.0586	79.703	60.0586	79.5645	60.0586	79.6032	60.0586	79.4865	60.0586	79.514	60.0586	79.4213	60.0586	79.4393	60.0586	79.3722	60.0586	79.3827	60.0586	79.3421	60.0586	79.3469	60.0586	79.3333
62.9883	80.7635	62.9883	80.734	62.9883	80.7708	62.9883	80.6835	62.9883	80.7555	62.9883	80.6135	62.9883	80.718	62.9883	80.5262	62.9883	80.6592	62.9883	80.4244	62.9883	80.5807	62.9883	80.3108	62.9883	80.4846	62.9883	80.1884	62.9883	80.3732	62.9883	80.0604	62.9883	80.2496	62.9883	79.9298	62.9883	80.1169	62.9883	79.7999	62.9883	79.9786	62.9883	79.6737	62.9883	79.8387	62.9883	79.5547	62.9883	79.7015	62.9883	79.4465	62.9883	79.5716	62.9883	79.3529	62.9883	79.4541	62.9883	79.2776	62.9883	79.3537	62.9883	79.2242	62.9883	79.2749	62.9883	79.1958	62.9883	79.2211	62.9883	79.1945
64.4531	81.3015	64.4531	81.2836	64.4531	81.2956	64.4531	81.2428	64.4531	81.2658	64.4531	81.1802	64.4531	81.2124	64.4531	81.0975	64.4531	81.1363	64.4531	80.9968	64.4531	81.0386	64.4531	80.8803	64.4531	80.9212	64.4531	80.7503	64.4531	80.7864	64.4531	80.6096	64.4531	80.6369	64.4531	80.4609	64.4531	80.4763	64.4531	80.3073	64.4531	80.3088	64.4531	80.1523	64.4531	80.1396	64.4531	80.0002	64.4531	79.9746	64.4531	79.8556	64.4531	79.8205	64.4531	79.7237	64.4531	79.6843	64.4531	79.6103	64.4531	79.5728	64.4531	79.5211	64.4531	79.4918	64.4531	79.4614	64.4531	79.4453	64.4531	79.4352
67.3828	81.4634	67.3828	81.4499	67.3828	81.4551	67.3828	81.4154	67.3828	81.4248	67.3828	81.3611	67.3828	81.3727	67.3828	81.2884	67.3828	81.2992	67.3828	81.1989	67.3828	81.2056	67.3828	81.0943	67.3828	81.0931	67.3828	80.9765	67.3828	80.9637	67.3828	80.8473	67.3828	80.8199	67.3828	80.7088	67.3828	80.6647	67.3828	80.5636	67.3828	80.5023	67.3828	80.4147	67.3828	80.3378	67.3828	80.2659	67.3828	80.1772	67.3828	80.1217	67.3828	80.0275	67.3828	79.9875	67.3828	79.896	67.3828	79.8695	67.3828	79.7898	67.3828	79.774	67.3828	79.7148	67.3828	79.7067	67.3828	79.6752	67.3828	79.6728
68.8477	81.5112	68.8477	81.496	68.8477	81.5054	68.8477	81.4605	68.8477	81.4783	68.8477	81.4059	68.8477	81.4301	68.8477	81.3335	68.8477	81.3614	68.8477	81.245	68.8477	81.2733	68.8477	81.1423	68.8477	81.167	68.8477	81.0272	68.8477	81.0443	68.8477	80.9016	68.8477	80.9075	68.8477	80.7678	68.8477	80.7595	68.8477	80.628	68.8477	80.6039	68.8477	80.4853	68.8477	80.4457	68.8477	80.3432	68.8477	80.2906	68.8477	80.2063	68.8477	80.1453	68.8477	80.0795	68.8477	80.0168	68.8477	79.9688	68.8477	79.912	68.8477	79.88	68.8477	79.8369	68.8477	79.8187	68.8477	79.7955	68.8477	79.7896
71.7773	81.6039	71.7773	81.587	71.7773	81.5986	71.7773	81.5485	71.7773	81.5709	71.7773	81.4898	71.7773	81.5213	71.7773	81.4127	71.7773	81.4507	71.7773	81.3192	71.7773	81.3605	71.7773	81.2115	71.7773	81.2523	71.7773	81.0919	71.7773	81.1284	71.7773	80.9628	71.7773	80.991	71.7773	80.8267	71.7773	80.8431	71.7773	80.6862	71.7773	80.6886	71.7773	80.5443	71.7773	80.532	71.7773	80.4046	71.7773	80.3788	71.7773	80.2712	71.7773	80.2355	71.7773	80.149	71.7773	80.1085	71.7773	80.0433	71.7773	80.0046	71.7773	79.9596	71.7773	79.9292	71.7773	79.903	71.7773	79.8863	71.7773	79.8777
74.707	81.7005	74.707	81.6833	74.707	81.6937	74.707	81.6431	74.707	81.663	74.707	81.5812	74.707	81.609	74.707	81.4995	74.707	81.5329	74.707	81.4004	74.707	81.4363	74.707	81.2865	74.707	81.3214	74.707	81.1602	74.707	81.1905	74.707	81.0245	74.707	81.0464	74.707	80.8819	74.707	80.8924	74.707	80.7354	74.707	80.7325	74.707	80.5882	74.707	80.5713	74.707	80.4441	74.707	80.4145	74.707	80.3072	74.707	80.2685	74.707	80.1824	74.707	80.1397	74.707	80.0749	74.707	80.0347	74.707	79.99	74.707	79.9587	74.707	79.9327	74.707	79.9156	74.707	79.9071
77.6367	81.787	77.6367	81.7703	77.6367	81.7779	77.6367	81.7284	77.6367	81.7428	77.6367	81.6629	77.6367	81.6828	77.6367	81.5761	77.6367	81.5993	77.6367	81.4706	77.6367	81.4944	77.6367	81.3493	77.6367	81.3705	77.6367	81.2152	77.6367	81.2304	77.6367	81.0714	77.6367	81.0774	77.6367	80.9209	77.6367	80.9149	77.6367	80.7668	77.6367	80.7473	77.6367	80.6127	77.6367	80.5796	77.6367	80.4621	77.6367	80.4174	77.6367	80.3196	77.6367	80.2671	77.6367	80.1898	77.6367	80.1355	77.6367	80.0781	77.6367	80.0287	77.6367	79.9898	77.6367	79.9521	77.6367	79.9297	77.6367	79.9094	77.6367	79.9021
79.1016	81.8487	79.1016	81.8306	79.1016	81.8397	79.1016	81.7863	79.1016	81.8036	79.1016	81.7175	79.1016	81.7413	79.1016	81.6267	79.1016	81.6545	79.1016	81.5167	79.1016	81.5453	79.1016	81.3908	79.1016	81.4166	79.1016	81.2522	79.1016	81.2714	79.1016	81.104	79.1016	81.113	79.1016	80.9496	79.1016	80.9454	79.1016	80.792	79.1016	80.773	79.1016	80.6347	79.1016	80.6009	79.1016	80.4816	79.1016	80.435	79.1016	80.3368	79.1016	80.2818	79.1016	80.2051	79.1016	80.148	79.1016	80.0918	79.1016	80.0398	79.1016	80.0021	79.1016	79.9625	79.1016	79.941	79.1016	79.9196	79.1016	79.9127
82.0312	81.939	82.0312	81.919	82.0312	81.9304	82.0312	81.8713	82.0312	81.8932	82.0312	81.7982	82.0312	81.8285	82.0312	81.7026	82.0312	81.7383	82.0312	81.588	82.0312	81.6255	82.0312	81.4582	82.0312	81.4932	82.0312	81.317	82.0312	81.3452	82.0312	81.168	82.0312	81.1854	82.0312	81.0147	82.0312	81.0178	82.0312	80.8601	82.0312	80.847	82.0312	80.7076	82.0312	80.678	82.0312	80.5603	82.0312	80.5166	82.0312	80.422	82.0312	80.3686	82.0312	80.2968	82.0312	80.2403	82.0312	80.1892	82.0312	80.1372	82.0312	80.104	82.0312	80.0641	82.0312	80.0457	82.0312	80.0241	82.0312	80.0182
84.9609	81.9278	84.9609	81.904	84.9609	81.9221	84.9609	81.8519	84.9609	81.8872	84.9609	81.7736	84.9609	81.8245	84.9609	81.6724	84.9609	81.7364	84.9609	81.5523	84.9609	81.6259	84.9609	81.4177	84.9609	81.4968	84.9609	81.2734	84.9609	81.3531	84.9609	81.1238	84.9609	81.1991	84.9609	80.973	84.9609	81.0391	84.9609	80.8248	84.9609	80.8777	84.9609	80.6825	84.9609	80.7198	84.9609	80.5493	84.9609	80.5703	84.9609	80.428	84.9609	80.4345	84.9609	80.3216	84.9609	80.3173	84.9609	80.2331	84.9609	80.223	84.9609	80.1654	84.9609	80.1549	84.9609	80.1217	84.9609	80.1151	84.9609	80.1043
87.8906	82.1593	87.8906	82.148	87.8906	82.1377	87.8906	82.1041	87.8906	82.0841	87.8906	82.0295	87.8906	82.0009	87.8906	81.9273	87.8906	81.8915	87.8906	81.8015	87.8906	81.7602	87.8906	81.6572	87.8906	81.612	87.8906	81.4997	87.8906	81.4522	87.8906	81.3347	87.8906	81.286	87.8906	81.1678	87.8906	81.1188	87.8906	81.004	87.8906	80.9555	87.8906	80.8481	87.8906	80.8007	87.8906	80.7042	87.8906	80.6588	87.8906	80.5758	87.8906	80.5336	87.8906	80.4657	87.8906	80.4284	87.8906	80.3762	87.8906	80.3457	87.8906	80.3091	87.8906	80.2874	87.8906	80.2658	87.8906	80.2545	87.8906	80.2474
90.8203	82.4379	90.8203	82.4218	90.8203	82.4167	90.8203	82.3689	90.8203	82.3588	90.8203	82.2813	90.8203	82.2667	90.8203	82.1626	90.8203	82.1438	90.8203	82.0172	90.8203	81.995	90.8203	81.8507	90.8203	81.8256	90.8203	81.6691	90.8203	81.6417	90.8203	81.4787	90.8203	81.4495	90.8203	81.286	90.8203	81.2555	90.8203	81.0969	90.8203	81.0656	90.8203	80.9172	90.8203	80.8857	90.8203	80.7518	90.8203	80.7209	90.8203	80.6049	90.8203	80.5758	90.8203	80.4799	90.8203	80.4539	90.8203	80.3793	90.8203	80.3581	90.8203	80.3051	90.8203	80.29	90.8203	80.2584	90.8203	80.2505	90.8203	80.24
95.2148	82.7484	95.2148	82.7333	95.2148	82.7232	95.2148	82.6788	95.2148	82.6584	95.2148	82.5871	95.2148	82.5562	95.2148	82.4617	95.2148	82.4201	95.2148	82.3073	95.2148	82.2549	95.2148	82.1293	95.2148	82.0666	95.2148	81.9335	95.2148	81.8617	95.2148	81.7265	95.2148	81.6472	95.2148	81.5148	95.2148	81.4304	95.2148	81.3048	95.2148	81.2183	95.2148	81.103	95.2148	81.0177	95.2148	80.9152	95.2148	80.8346	95.2148	80.7467	95.2148	80.6742	95.2148	80.6019	95.2148	80.5405	95.2148	80.4843	95.2148	80.4364	95.2148	80.3964	95.2148	80.3636	95.2148	80.3396	95.2148	80.323	95.2148	80.3151
98.1445	82.8234	98.1445	82.8044	98.1445	82.8002	98.1445	82.7442	98.1445	82.7353	98.1445	82.6454	98.1445	82.6308	98.1445	82.5119	98.1445	82.4904	98.1445	82.3485	98.1445	82.3193	98.1445	82.1613	98.1445	82.1237	98.1445	81.9566	98.1445	81.9108	98.1445	81.7414	98.1445	81.6884	98.1445	81.5228	98.1445	81.4645	98.1445	81.3076	98.1445	81.2467	98.1445	81.1027	98.1445	81.0421	98.1445	80.914	98.1445	80.857	98.1445	80.7467	98.1445	80.6961	98.1445	80.605	98.1445	80.563	98.1445	80.4918	98.1445	80.4597	98.1445	80.4087	98.1445	80.3873	98.1445	80.3566	98.1445	80.3459	98.1445	80.3357
101.074	82.9075	101.074	82.8877	101.074	82.8826	101.074	82.8244	101.074	82.8137	101.074	82.7203	101.074	82.7028	101.074	82.5791	101.074	82.5536	101.074	82.4061	101.074	82.3716	101.074	82.2072	101.074	82.1632	101.074	81.9893	101.074	81.9364	101.074	81.7596	101.074	81.6997	101.074	81.5259	101.074	81.4617	101.074	81.2959	101.074	81.2311	101.074	81.0769	101.074	81.0156	101.074	80.876	101.074	80.8216	101.074	80.6989	101.074	80.654	101.074	80.5501	101.074	80.5159	101.074	80.4326	101.074	80.4088	101.074	80.3479	101.074	80.3333	101.074	80.296	101.074	80.2892	101.074	80.2767
105.469	83.0393	105.469	83.0191	105.469	83.0125	105.469	82.9531	105.469	82.9385	105.469	82.8441	105.469	82.8192	105.469	82.6963	105.469	82.6579	105.469	82.5148	105.469	82.4595	105.469	82.3057	105.469	82.2309	105.469	82.0759	105.469	81.98	105.469	81.8326	105.469	81.7164	105.469	81.5838	105.469	81.4505	105.469	81.3373	105.469	81.1926	105.469	81.1011	105.469	80.9527	105.469	80.8824	105.469	80.7389	105.469	80.6876	105.469	80.5574	105.469	80.5217	105.469	80.4117	105.469	80.388	105.469	80.303	105.469	80.2882	105.469	80.2308	105.469	80.2227	105.469	80.1939	105.469	80.1914
108.398	83.0221	108.398	83.0053	108.398	82.9919	108.398	82.943	108.398	82.915	108.398	82.838	108.398	82.7929	108.398	82.6946	108.398	82.6294	108.398	82.5179	108.398	82.4293	108.398	82.3144	108.398	82.1994	108.398	82.0907	108.398	81.948	108.398	81.8542	108.398	81.6844	108.398	81.6124	108.398	81.4192	108.398	81.3729	108.398	81.1628	108.398	81.1429	108.398	80.9255	108.398	80.9291	108.398	80.7158	108.398	80.7374	108.398	80.5401	108.398	80.5722	108.398	80.4018	108.398	80.4366	108.398	80.302	108.398	80.3324	108.398	80.2397	108.398	80.2602	108.398	80.213	108.398	80.2203
112.793	82.9586	112.793	82.9307	112.793	82.9382	112.793	82.8562	112.793	82.8698	112.793	82.7386	112.793	82.7556	112.793	82.583	112.793	82.5999	112.793	82.3959	112.793	82.4086	112.793	82.185	112.793	82.1892	112.793	81.9584	112.793	81.9504	112.793	81.7247	112.793	81.7018	112.793	81.4922	112.793	81.4535	112.793	81.2686	112.793	81.215	112.793	81.0607	112.793	80.9954	112.793	80.8738	112.793	80.8018	112.793	80.7118	112.793	80.6394	112.793	80.5771	112.793	80.5107	112.793	80.4707	112.793	80.4159	112.793	80.3925	112.793	80.3536	112.793	80.3418	112.793	80.3217	112.793	80.3182
117.188	82.9968	117.188	82.9386	117.188	83.0001	117.188	82.827	117.188	82.9491	117.188	82.6661	117.188	82.8469	117.188	82.4625	117.188	82.6992	117.188	82.2249	117.188	82.5133	117.188	81.9641	117.188	82.2989	117.188	81.6925	117.188	82.0666	117.188	81.4233	117.188	81.8277	117.188	81.1694	117.188	81.5928	117.188	80.9421	117.188	81.3714	117.188	80.7497	117.188	81.1703	117.188	80.5972	117.188	80.9937	117.188	80.4856	117.188	80.8428	117.188	80.4126	117.188	80.7167	117.188	80.3738	117.188	80.613	117.188	80.364	117.188	80.5288	117.188	80.3779	117.188	80.462	117.188	80.4114
120.117	83.4983	120.117	83.4732	120.117	83.4632	120.117	83.3882	120.117	83.3696	120.117	83.246	120.117	83.222	120.117	83.0518	120.117	83.027	120.117	82.8132	120.117	82.7941	120.117	82.5403	120.117	82.5349	120.117	82.2456	120.117	82.263	120.117	81.9436	120.117	81.9927	120.117	81.6501	120.117	81.7381	120.117	81.3805	120.117	81.5107	120.117	81.1482	120.117	81.3181	120.117	80.9627	120.117	81.1629	120.117	80.8281	120.117	81.0427	120.117	80.7427	120.117	80.9514	120.117	80.7004	120.117	80.8814	120.117	80.6918	120.117	80.8252	120.117	80.7072	120.117	80.7779	120.117	80.7378
124.512	83.7495	124.512	83.7177	124.512	83.7191	124.512	83.6251	124.512	83.6273	124.512	83.4753	124.512	83.4776	124.512	83.2743	124.512	83.2761	124.512	83.0301	124.512	83.032	124.512	82.753	124.512	82.7573	124.512	82.4555	124.512	82.4668	124.512	82.152	124.512	82.1768	124.512	81.8582	124.512	81.9038	124.512	81.5895	124.512	81.6619	124.512	81.3595	124.512	81.4614	124.512	81.1779	124.512	81.3063	124.512	81.0486	124.512	81.1942	124.512	80.9694	124.512	81.1175	124.512	80.9328	124.512	81.0657	124.512	80.9279	124.512	81.0281	124.512	80.943	124.512	80.9968	124.512	80.968
128.906	83.8356	128.906	83.8017	128.906	83.8023	128.906	83.7019	128.906	83.7023	128.906	83.54	128.906	83.5388	128.906	83.3216	128.906	83.3176	128.906	83.055	128.906	83.0482	128.906	82.7509	128.906	82.7438	128.906	82.4232	128.906	82.4213	128.906	82.0881	128.906	82.1003	128.906	81.7641	128.906	81.8016	128.906	81.4699	128.906	81.5431	128.906	81.2221	128.906	81.3372	128.906	81.0325	128.906	81.1875	128.906	80.9056	128.906	81.0888	128.906	80.8379	128.906	81.029	128.906	80.8187	128.906	80.9928	128.906	80.8333	128.906	80.9658	128.906	80.866	128.906	80.9375	128.906	80.9035
133.301	83.948	133.301	83.9167	133.301	83.9105	133.301	83.8182	133.301	83.8044	133.301	83.6554	133.301	83.6311	133.301	83.4327	133.301	83.3946	133.301	83.1565	133.301	83.1016	133.301	82.8358	133.301	82.7627	133.301	82.4825	133.301	82.3933	133.301	82.1119	133.301	82.0131	133.301	81.7423	133.301	81.6454	133.301	81.3938	133.301	81.3138	133.301	81.0861	133.301	81.0378	133.301	80.8351	133.301	80.8281	133.301	80.6497	133.301	80.6843	133.301	80.5301	133.301	80.5954	133.301	80.4675	133.301	80.5448	133.301	80.4475	133.301	80.5149	133.301	80.4536	133.301	80.4927	133.301	80.4717
139.16	83.9887	139.16	83.9496	139.16	83.9566	139.16	83.8406	139.16	83.8541	139.16	83.6644	139.16	83.6836	139.16	83.4262	139.16	83.4499	139.16	83.1333	139.16	83.1608	139.16	82.7961	139.16	82.8273	139.16	82.4286	139.16	82.4644	139.16	82.0484	139.16	82.0913	139.16	81.6765	139.16	81.7304	139.16	81.3349	139.16	81.4047	139.16	81.0442	139.16	81.1338	139.16	80.8194	139.16	80.9292	139.16	80.6662	139.16	80.791	139.16	80.5803	139.16	80.709	139.16	80.5485	139.16	80.6657	139.16	80.5529	139.16	80.6424	139.16	80.5754	139.16	80.6239	139.16	80.6016
143.555	84.0704	143.555	84.0223	143.555	84.0432	143.555	83.8998	143.555	83.9414	143.555	83.7054	143.555	83.7677	143.555	83.4436	143.555	83.527	143.555	83.1212	143.555	83.2275	143.555	82.7483	143.555	82.8809	143.555	82.3391	143.555	82.5031	143.555	81.912	143.555	82.1138	143.555	81.4902	143.555	81.7353	143.555	81.0993	143.555	81.39	143.555	80.7643	143.555	81.0962	143.555	80.5045	143.555	80.8645	143.555	80.3291	143.555	80.6954	143.555	80.2351	143.555	80.5792	143.555	80.2085	143.555	80.5001	143.555	80.229	143.555	80.4406	143.555	80.2756	143.555	80.3869	143.555	80.3315
147.949	84.2176	147.949	84.1693	147.949	84.1846	147.949	84.0408	147.949	84.0704	147.949	83.8347	147.949	83.8772	147.949	83.5553	147.949	83.6101	147.949	83.2094	147.949	83.2784	147.949	82.8074	147.949	82.897	147.949	82.3649	147.949	82.4871	147.949	81.9041	147.949	82.0763	147.949	81.4534	147.949	81.6956	147.949	81.0459	147.949	81.3736	147.949	80.7141	147.949	81.1297	147.949	80.4816	147.949	80.968	147.949	80.3566	147.949	80.8765	147.949	80.3293	147.949	80.8323	147.949	80.3755	147.949	80.8084	147.949	80.4648	147.949	80.7813	147.949	80.5681	147.949	80.7349	147.949	80.6626
153.809	84.5485	153.809	84.4957	153.809	84.5246	153.809	84.3673	153.809	84.423	153.809	84.164	153.809	84.243	153.809	83.8874	153.809	83.9854	153.809	83.54	153.809	83.6531	153.809	83.1265	153.809	83.2535	153.809	82.6558	153.809	82.8007	153.809	82.1428	153.809	82.3167	153.809	81.6108	153.809	81.8329	153.809	81.0922	153.809	81.3862	153.809	80.627	153.809	81.0125	153.809	80.2562	153.809	80.7351	153.809	80.0098	153.809	80.5558	153.809	79.8955	153.809	80.4548	153.809	79.8955	153.809	80.3983	153.809	79.9729	153.809	80.3516	153.809	80.0857	153.809	80.2887	153.809	80.1983
159.668	84.0592	159.668	84.0524	159.668	83.9988	159.668	83.9777	159.668	83.8726	159.668	83.8352	159.668	83.6822	159.668	83.6257	159.668	83.43	159.668	83.3519	159.668	83.1201	159.668	83.0183	159.668	82.7587	159.668	82.6327	159.668	82.3563	159.668	82.2069	159.668	81.9287	159.668	81.7576	159.668	81.4978	159.668	81.3068	159.668	81.0903	159.668	80.8812	159.668	80.7334	159.668	80.5086	159.668	80.448	159.668	80.2127	159.668	80.2417	159.668	80.0068	159.668	80.1065	159.668	79.8894	159.668	80.0228	159.668	79.8452	159.668	79.9677	159.668	79.8508	159.668	79.9232	159.668	79.8824
165.527	83.8419	165.527	83.8144	165.527	83.7902	165.527	83.7066	165.527	83.6611	165.527	83.518	165.527	83.4579	165.527	83.2498	165.527	83.1865	165.527	82.9057	165.527	82.8564	165.527	82.4937	165.527	82.4821	165.527	82.028	165.527	82.0841	165.527	81.5309	165.527	81.6872	165.527	81.0329	165.527	81.318	165.527	80.5711	165.527	80.9994	165.527	80.1824	165.527	80.7449	165.527	79.8955	165.527	80.5556	165.527	79.7223	165.527	80.4207	165.527	79.6557	165.527	80.322	165.527	79.6737	165.527	80.2397	165.527	79.7479	165.527	80.1576	165.527	79.8511	165.527	80.0657	165.527	79.9616
171.387	84.1794	171.387	84.209	171.387	84.0682	171.387	84.157	171.387	83.8747	171.387	84.0227	171.387	83.5981	171.387	83.8053	171.387	83.2387	171.387	83.5051	171.387	82.8004	171.387	83.1253	171.387	82.2947	171.387	82.6739	171.387	81.745	171.387	82.1669	171.387	81.1903	171.387	81.6306	171.387	80.6842	171.387	81.1029	171.387	80.2844	171.387	80.6303	171.387	80.0321	171.387	80.2589	171.387	79.933	171.387	80.02	171.387	79.9542	171.387	79.9177	171.387	80.0414	171.387	79.9273	171.387	80.1398	171.387	80.0056	171.387	80.2091	171.387	80.1059	171.387	80.2268	171.387	80.1885
177.246	84.263	177.246	84.2781	177.246	84.1678	177.246	84.2134	177.246	83.991	177.246	84.0685	177.246	83.7301	177.246	83.8427	177.246	83.3826	177.246	83.5354	177.246	82.9467	177.246	83.1484	177.246	82.4245	177.246	82.6873	177.246	81.8263	177.246	82.1657	177.246	81.1766	177.246	81.608	177.246	80.5209	177.246	81.0526	177.246	79.9273	177.246	80.5499	177.246	79.475	177.246	80.1525	177.246	79.224	177.246	79.8964	177.246	79.1809	177.246	79.7836	177.246	79.2945	177.246	79.7805	177.246	79.4841	177.246	79.8316	177.246	79.6745	177.246	79.8803	177.246	79.8151	177.246	79.883
183.105	84.2496	183.105	84.2714	183.105	84.1574	183.105	84.2221	183.105	83.9953	183.105	84.1006	183.105	83.7632	183.105	83.9053	183.105	83.4615	183.105	83.635	183.105	83.0915	183.105	83.2901	183.105	82.6577	183.105	82.8739	183.105	82.1701	183.105	82.3958	183.105	81.6481	183.105	81.8737	183.105	81.1237	183.105	81.3377	183.105	80.6411	183.105	80.8297	183.105	80.2495	183.105	80.3985	183.105	79.9866	183.105	80.0864	183.105	79.8619	183.105	79.9122	183.105	79.8502	183.105	79.8617	183.105	79.9031	183.105	79.8931	183.105	79.9688	183.105	79.9545	183.105	80.0079	183.105	80.0016
188.965	84.6271	188.965	84.6201	188.965	84.5523	188.965	84.5324	188.965	84.3946	188.965	84.3653	188.965	84.1538	188.965	84.1197	188.965	83.8309	188.965	83.797	188.965	83.4292	188.965	83.4003	188.965	82.9561	188.965	82.9359	188.965	82.4258	188.965	82.4165	188.965	81.8629	188.965	81.8645	188.965	81.3061	188.965	81.3141	188.965	80.8069	188.965	80.8108	188.965	80.4201	188.965	80.4043	188.965	80.1831	188.965	80.1336	188.965	80.0968	188.965	80.0102	188.965	80.1226	188.965	80.0119	188.965	80.2008	188.965	80.0916	188.965	80.2745	188.965	80.1949	188.965	80.3046	188.965	80.2755
196.289	84.4802	196.289	84.4532	196.289	84.4194	196.289	84.3425	196.289	84.2672	196.289	84.1517	196.289	84.0206	196.289	83.8842	196.289	83.678	196.289	83.5431	196.289	83.2408	196.289	83.1324	196.289	82.715	196.289	82.6592	196.289	82.1149	196.289	82.1369	196.289	81.4679	196.289	81.5887	196.289	80.8196	196.289	81.0501	196.289	80.2351	196.289	80.5679	196.289	79.7879	196.289	80.1907	196.289	79.533	196.289	79.9528	196.289	79.4763	196.289	79.8572	196.289	79.5693	196.289	79.8725	196.289	79.7345	196.289	79.9456	196.289	79.8985	196.289	80.02	196.289	80.0113	196.289	80.0506
203.613	84.593	203.613	84.5455	203.613	84.5452	203.613	84.4049	203.613	84.4	203.613	84.1728	203.613	84.1559	203.613	83.851	203.613	83.8134	203.613	83.4422	203.613	83.3778	203.613	82.9523	203.613	82.8619	203.613	82.3931	203.613	82.2898	203.613	81.7866	203.613	81.7	203.613	81.169	203.613	81.1454	203.613	80.5932	203.613	80.6856	203.613	80.1237	203.613	80.3703	203.613	79.819	203.613	80.2187	203.613	79.706	203.613	80.2099	203.613	79.7642	203.613	80.2926	203.613	79.9349	203.613	80.4053	203.613	80.1469	203.613	80.4945	203.613	80.3393	203.613	80.5227	203.613	80.471
210.938	85.0116	210.938	84.9893	210.938	84.9479	210.938	84.8853	210.938	84.7908	210.938	84.7005	210.938	84.5309	210.938	84.4329	210.938	84.157	210.938	84.0778	210.938	83.6589	210.938	83.6293	210.938	83.0299	210.938	83.0825	210.938	82.2727	210.938	82.437	210.938	81.4092	210.938	81.7024	210.938	80.4945	210.938	80.9061	210.938	79.6309	210.938	80.1037	210.938	78.9581	210.938	79.3834	210.938	78.594	210.938	78.8512	210.938	78.5504	210.938	78.5843	210.938	78.7208	210.938	78.5785	210.938	78.9568	210.938	78.7464	210.938	79.1412	210.938	78.9687	210.938	79.2093	210.938	79.1441
218.262	85.0753	218.262	85.0491	218.262	85.0163	218.262	84.9399	218.262	84.8689	218.262	84.7489	218.262	84.628	218.262	84.4768	218.262	84.2883	218.262	84.1253	218.262	83.8445	218.262	83.6983	218.262	83.2952	218.262	83.2042	218.262	82.6469	218.262	82.6582	218.262	81.9212	218.262	82.0853	218.262	81.1626	218.262	81.5214	218.262	80.4442	218.262	81.0099	218.262	79.8595	218.262	80.5936	218.262	79.4895	218.262	80.3004	218.262	79.3588	218.262	80.132	218.262	79.4199	218.262	80.0628	218.262	79.5845	218.262	80.0493	218.262	79.769	218.262	80.0444	218.262	79.9181	218.262	80.0088
225.586	84.9767	225.586	84.8762	225.586	84.9863	225.586	84.6917	225.586	84.8975	225.586	84.4289	225.586	84.7026	225.586	84.0922	225.586	84.3941	225.586	83.6856	225.586	83.9662	225.586	83.2143	225.586	83.4179	225.586	82.6883	225.586	82.7583	225.586	82.1274	225.586	82.0151	225.586	81.5671	225.586	81.246	225.586	81.0604	225.586	80.5469	225.586	80.6705	225.586	80.0376	225.586	80.4493	225.586	79.8107	225.586	80.4107	225.586	79.8703	225.586	80.5192	225.586	80.1273	225.586	80.706	225.586	80.4578	225.586	80.896	225.586	80.7593	225.586	81.0273	225.586	80.9687	225.586	81.0584
232.91	85.4127	232.91	85.2912	232.91	85.4367	232.91	85.0738	232.91	85.3603	232.91	84.7612	232.91	85.1804	232.91	84.352	232.91	84.8934	232.91	83.8435	232.91	84.4966	232.91	83.2323	232.91	83.9888	232.91	82.5178	232.91	83.3741	232.91	81.7079	232.91	82.6664	232.91	80.831	232.91	81.8981	232.91	79.9513	232.91	81.1297	232.91	79.1818	232.91	80.4527	232.91	78.666	232.91	79.969	232.91	78.5049	232.91	79.7397	232.91	78.6765	232.91	79.7402	232.91	79.0478	232.91	79.872	232.91	79.4634	232.91	80.0181	232.91	79.8088	232.91	80.0864	232.91	80.0226
241.699	85.4258	241.699	85.3175	241.699	85.4447	241.699	85.1222	241.699	85.3675	241.699	84.8379	241.699	85.1827	241.699	84.4589	241.699	84.875	241.699	83.9775	241.699	84.4267	241.699	83.3858	241.699	83.8199	241.699	82.6785	241.699	83.0412	241.699	81.8592	241.699	82.0913	241.699	80.9506	241.699	81.0048	241.699	80.013	241.699	79.8835	241.699	79.1646	241.699	78.9272	241.699	78.5745	241.699	78.3869	241.699	78.3811	241.699	78.378	241.699	78.5759	241.699	78.7576	241.699	79.0006	241.699	79.2654	241.699	79.4628	241.699	79.7005	241.699	79.8217	241.699	79.9578	241.699	79.998
250.488	85.885	250.488	85.7825	250.488	85.8772	250.488	85.5733	250.488	85.7539	250.488	85.2596	250.488	85.5095	250.488	84.8429	250.488	85.1394	250.488	84.3252	250.488	84.6435	250.488	83.7106	250.488	84.0305	250.488	83.0075	250.488	83.3234	250.488	82.2311	250.488	82.5647	250.488	81.4071	250.488	81.8168	250.488	80.5766	250.488	81.1533	250.488	79.8013	250.488	80.6356	250.488	79.1617	250.488	80.2874	250.488	78.7392	250.488	80.086	250.488	78.5776	250.488	79.9775	250.488	78.6526	250.488	79.9011	250.488	78.8825	250.488	79.8061	250.488	79.1711	250.488	79.6583	250.488	79.4433
259.277	86.441	259.277	86.3463	259.277	86.4485	259.277	86.1616	259.277	86.3651	259.277	85.8783	259.277	86.1803	259.277	85.4835	259.277	85.8774	259.277	84.9624	259.277	85.4356	259.277	84.2999	259.277	84.833	259.277	83.484	259.277	84.0508	259.277	82.5117	259.277	83.0826	259.277	81.3994	259.277	81.9508	259.277	80.2034	259.277	80.7391	259.277	79.0497	259.277	79.6293	259.277	78.1474	259.277	78.8795	259.277	77.7127	259.277	78.6537	259.277	77.7972	259.277	78.8521	259.277	78.2321	259.277	79.2136	259.277	78.7767	259.277	79.5176	259.277	79.2513	259.277	79.6459	259.277	79.5558
268.066	86.3993	268.066	86.3539	268.066	86.3606	268.066	86.2253	268.066	86.2339	268.066	86.0111	268.066	86.0121	268.066	85.7061	268.066	85.6859	268.066	85.3023	268.066	85.2454	268.066	84.7907	268.066	84.6842	268.066	84.1648	268.066	84.004	268.066	83.4267	268.066	83.2238	268.066	82.599	268.066	82.3914	268.066	81.7397	268.066	81.5948	268.066	80.9552	268.066	80.9585	268.066	80.3856	268.066	80.5973	268.066	80.1377	268.066	80.5415	268.066	80.2066	268.066	80.7089	268.066	80.4789	268.066	80.9624	268.066	80.8118	268.066	81.1822	268.066	81.0954	268.066	81.2941	268.066	81.2655
276.855	85.8658	276.855	85.7113	276.855	85.9429	276.855	85.4865	276.855	85.9286	276.855	85.1905	276.855	85.8033	276.855	84.8145	276.855	85.5437	276.855	84.3431	276.855	85.1259	276.855	83.7564	276.855	84.5284	276.855	83.034	276.855	83.7391	276.855	82.1602	276.855	82.768	276.855	81.1355	276.855	81.6715	276.855	80.0023	276.855	80.5901	276.855	78.8924	276.855	79.7624	276.855	78.0686	276.855	79.422	276.855	77.83	276.855	79.5894	276.855	78.2274	276.855	80.0466	276.855	78.9896	276.855	80.5341	276.855	79.795	276.855	80.8807	276.855	80.4464	276.855	81.0002	276.855	80.8571
287.109	85.122	287.109	85.0881	287.109	85.1063	287.109	84.9901	287.109	85.0473	287.109	84.8094	287.109	84.9394	287.109	84.5263	287.109	84.7632	287.109	84.1201	287.109	84.4898	287.109	83.5695	287.109	84.0874	287.109	82.8527	287.109	83.5301	287.109	81.9509	287.109	82.8081	287.109	80.858	287.109	81.9406	287.109	79.6038	287.109	80.9968	287.109	78.3032	287.109	80.1151	287.109	77.2184	287.109	79.4842	287.109	76.7072	287.109	79.2358	287.109	76.9154	287.109	79.3232	287.109	77.5963	287.109	79.5569	287.109	78.391	287.109	79.7423	287.109	79.0706	287.109	79.7546	287.109	79.535
297.363	85.891	297.363	85.9074	297.363	85.7684	297.363	85.8212	297.363	85.5357	297.363	85.6345	297.363	85.1894	297.363	85.3459	297.363	84.7242	297.363	84.95	297.363	84.131	297.363	84.4383	297.363	83.3949	297.363	83.7999	297.363	82.4996	297.363	83.0233	297.363	81.4419	297.363	82.0987	297.363	80.2626	297.363	81.0257	297.363	79.0952	297.363	79.8335	297.363	78.188	297.363	78.6224	297.363	77.7861	297.363	77.6128	297.363	77.8961	297.363	77.0962	297.363	78.2771	297.363	77.1887	297.363	78.668	297.363	77.682	297.363	78.9098	297.363	78.2586	297.363	78.9298	297.363	78.7055
307.617	85.9663	307.617	85.8775	307.617	85.9782	307.617	85.7228	307.617	85.8969	307.617	85.5053	307.617	85.7019	307.617	85.2192	307.617	85.3707	307.617	84.8505	307.617	84.8791	307.617	84.3794	307.617	84.2023	307.617	83.7853	307.617	83.3175	307.617	83.0541	307.617	82.2137	307.617	82.1895	307.617	80.9178	307.617	81.2289	307.617	79.5541	307.617	80.2646	307.617	78.4196	307.617	79.4538	307.617	77.9075	307.617	78.9749	307.617	78.1255	307.617	78.9101	307.617	78.7516	307.617	79.1705	307.617	79.4094	307.617	79.5679	307.617	79.8953	307.617	79.9295	307.617	80.1405	307.617	80.1417
319.336	85.3863	319.336	85.2502	319.336	85.4584	319.336	85.0647	319.336	85.4463	319.336	84.8355	319.336	85.327	319.336	84.5575	319.336	85.0781	319.336	84.2145	319.336	84.6784	319.336	83.7811	319.336	84.1081	319.336	83.2281	319.336	83.3456	319.336	82.5309	319.336	82.3679	319.336	81.6824	319.336	81.1599	319.336	80.7115	319.336	79.7518	319.336	79.7114	319.336	78.3057	319.336	78.859	319.336	77.2147	319.336	78.3656	319.336	76.9258	319.336	78.3238	319.336	77.4019	319.336	78.6129	319.336	78.1679	319.336	79.0057	319.336	78.8434	319.336	79.3132	319.336	79.2721	319.336	79.4216
329.59	85.1056	329.59	84.9647	329.59	85.1872	329.59	84.7725	329.59	85.1898	329.59	84.5262	329.59	85.0845	329.59	84.2135	329.59	84.8373	329.59	83.8152	329.59	84.4155	329.59	83.3081	329.59	83.7942	329.59	82.6699	329.59	82.9612	329.59	81.8861	329.59	81.9228	329.59	80.9615	329.59	80.7153	329.59	79.9409	329.59	79.4347	329.59	78.9391	329.59	78.2879	329.59	78.1574	329.59	77.5906	329.59	77.8114	329.59	77.5562	329.59	77.9581	329.59	78.043	329.59	78.4293	329.59	78.7021	329.59	78.9775	329.59	79.2605	329.59	79.4147	329.59	79.5853	329.59	79.634
341.309	85.5799	341.309	85.3694	341.309	85.7052	341.309	85.0823	341.309	85.7312	341.309	84.722	341.309	85.6367	341.309	84.2861	341.309	85.3934	341.309	83.7671	341.309	84.9671	341.309	83.1534	341.309	84.321	341.309	82.4356	341.309	83.4215	341.309	81.6176	341.309	82.2497	341.309	80.7371	341.309	80.8281	341.309	79.8928	341.309	79.2893	341.309	79.2564	341.309	77.9865	341.309	79.0082	341.309	77.4398	341.309	79.1926	341.309	77.8126	341.309	79.6645	341.309	78.6849	341.309	80.2103	341.309	79.5949	341.309	80.6665	341.309	80.3181	341.309	80.9415	341.309	80.7856	341.309	80.9892
353.027	84.941	353.027	84.5986	353.027	85.2405	353.027	84.224	353.027	85.4769	353.027	83.8154	353.027	85.6238	353.027	83.355	353.027	85.6501	353.027	82.8079	353.027	85.5202	353.027	82.1226	353.027	85.1914	353.027	81.2323	353.027	84.6111	353.027	80.0572	353.027	83.7146	353.027	78.5136	353.027	82.4278	353.027	76.5677	353.027	80.6913	353.027	74.4939	353.027	78.5725	353.027	73.4751	353.027	76.6507	353.027	74.577	353.027	76.2313	353.027	76.6072	353.027	77.4304	353.027	78.4125	353.027	78.9356	353.027	79.7167	353.027	80.0651	353.027	80.5168	353.027	80.6958	353.027	80.8408
366.211	84.9436	366.211	84.8323	366.211	84.9813	366.211	84.6447	366.211	84.9439	366.211	84.3753	366.211	84.8239	366.211	84.0138	366.211	84.6061	366.211	83.5437	366.211	84.2665	366.211	82.9407	366.211	83.774	366.211	82.1735	366.211	83.0937	366.211	81.2074	366.211	82.1934	366.211	80.0126	366.211	81.0599	366.211	78.5844	366.211	79.7352	366.211	76.9976	366.211	78.3811	366.211	75.5153	366.211	77.3225	366.211	74.6417	366.211	76.8791	366.211	74.7261	366.211	77.0182	366.211	75.4808	366.211	77.397	366.211	76.3833	366.211	77.7086	366.211	77.1291	366.211	77.7982	366.211	77.609
379.395	84.278	379.395	83.9729	379.395	84.5457	379.395	83.6575	379.395	84.7439	379.395	83.344	379.395	84.8436	379.395	83.0237	379.395	84.8228	379.395	82.6645	379.395	84.665	379.395	82.2157	379.395	84.3503	379.395	81.6143	379.395	83.8429	379.395	80.7918	379.395	83.0815	379.395	79.6779	379.395	81.9796	379.395	78.2118	379.395	80.4437	379.395	76.3933	379.395	78.4488	379.395	74.4814	379.395	76.3066	379.395	73.3705	379.395	75.1238	379.395	73.9292	379.395	75.7067	379.395	75.4427	379.395	76.9968	379.395	76.8989	379.395	78.0149	379.395	77.9332	379.395	78.5103	379.395	78.4756
392.578	83.5203	392.578	83.1887	392.578	83.8318	392.578	82.8625	392.578	84.0849	392.578	82.5482	392.578	84.236	392.578	82.2311	392.578	84.2461	392.578	81.8754	392.578	84.0855	392.578	81.4271	392.578	83.7329	392.578	80.8198	392.578	83.1681	392.578	79.98	392.578	82.3619	392.578	78.8345	392.578	81.275	392.578	77.3286	392.578	79.8791	392.578	75.4961	392.578	78.2328	392.578	73.6912	392.578	76.6542	392.578	72.8692	392.578	75.8114	392.578	73.6237	392.578	76.063	392.578	75.1077	392.578	76.8739	392.578	76.4699	392.578	77.6083	392.578	77.4281	392.578	77.9873	392.578	77.9332
405.762	82.1428	405.762	81.7977	405.762	82.5169	405.762	81.5002	405.762	82.8728	405.762	81.2406	405.762	83.148	405.762	80.992	405.762	83.286	405.762	80.7187	405.762	83.253	405.762	80.3792	405.762	83.0395	405.762	79.9264	405.762	82.6481	405.762	79.3098	405.762	82.0698	405.762	78.4827	405.762	81.2715	405.762	77.4256	405.762	80.216	405.762	76.2069	405.762	78.9351	405.762	75.0974	405.762	77.6534	405.762	74.588	405.762	76.8369	405.762	74.9481	405.762	76.8051	405.762	75.8439	405.762	77.2845	405.762	76.7917	405.762	77.7886	405.762	77.5281	405.762	78.0411	405.762	77.9557
420.41	83.4153	420.41	83.2601	420.41	83.5434	420.41	83.0709	420.41	83.6377	420.41	82.8321	420.41	83.6736	420.41	82.5189	420.41	83.6106	420.41	82.095	420.41	83.4011	420.41	81.513	420.41	82.9989	420.41	80.7168	420.41	82.357	420.41	79.641	420.41	81.4202	420.41	78.2055	420.41	80.117	420.41	76.3168	420.41	78.3718	420.41	73.9471	420.41	76.1896	420.41	71.6009	420.41	73.9909	420.41	71.0907	420.41	73.0677	420.41	72.8139	420.41	73.9932	420.41	74.8141	420.41	75.4651	420.41	76.2698	420.41	76.6168	420.41	77.1246	420.41	77.2755	420.41	77.4452
435.059	81.488	435.059	81.2475	435.059	81.7446	435.059	80.9985	435.059	82.0243	435.059	80.7178	435.059	82.2986	435.059	80.3886	435.059	82.5119	435.059	79.9905	435.059	82.6085	435.059	79.4904	435.059	82.5537	435.059	78.8387	435.059	82.3315	435.059	77.9686	435.059	81.9213	435.059	76.7905	435.059	81.274	435.059	75.1885	435.059	80.3188	435.059	73.0721	435.059	79.0181	435.059	70.7664	435.059	77.4945	435.059	70.0675	435.059	76.2231	435.059	71.9806	435.059	75.8683	435.059	74.3603	435.059	76.4041	435.059	76.1355	435.059	77.1583	435.059	77.2222	435.059	77.6529	435.059	77.7019
451.172	80.6374	451.172	80.4163	451.172	80.9045	451.172	80.2256	451.172	81.2318	451.172	80.0581	451.172	81.6089	451.172	79.9026	451.172	81.9866	451.172	79.7271	451.172	82.2866	451.172	79.4721	451.172	82.421	451.172	79.0587	451.172	82.3017	451.172	78.3926	451.172	81.8392	451.172	77.3526	451.172	80.9423	451.172	75.7514	451.172	79.5343	451.172	73.2492	451.172	77.627	451.172	69.1529	451.172	75.5759	451.172	63.2345	451.172	74.4307	451.172	66.4428	451.172	74.8704	451.172	71.486	451.172	75.9564	451.172	74.4138	451.172	76.8047	451.172	76.0901	451.172	77.1525	451.172	76.9399
465.82	80.3303	465.82	80.2913	465.82	80.3678	465.82	80.2364	465.82	80.4178	465.82	80.1609	465.82	80.4829	465.82	80.0644	465.82	80.553	465.82	79.9318	465.82	80.611	465.82	79.7183	465.82	80.6312	465.82	79.3544	465.82	80.5652	465.82	78.7638	465.82	80.3261	465.82	77.8721	465.82	79.7921	465.82	76.5959	465.82	78.839	465.82	74.8166	465.82	77.4046	465.82	72.3773	465.82	75.6351	465.82	69.3354	465.82	74.1569	465.82	67.4979	465.82	73.8261	465.82	69.3181	465.82	74.4428	465.82	71.9879	465.82	75.1129	465.82	73.8908	465.82	75.3449	465.82	74.9709
483.398	80.5644	483.398	80.7171	483.398	80.3314	483.398	80.7492	483.398	80.1236	483.398	80.6903	483.398	80.0392	483.398	80.5978	483.398	80.0822	483.398	80.4976	483.398	80.1727	483.398	80.3517	483.398	80.2409	483.398	80.073	483.398	80.2688	483.398	79.5606	483.398	80.2278	483.398	78.7198	483.398	80.004	483.398	77.454	483.398	79.4231	483.398	75.6456	483.398	78.3532	483.398	73.1859	483.398	76.8437	483.398	70.4022	483.398	75.3382	483.398	69.454	483.398	74.6456	483.398	71.3988	483.398	74.9541	483.398	73.6055	483.398	75.5659	483.398	75.0687	483.398	75.9222	483.398	75.7982
499.512	78.6805	499.512	78.9998	499.512	78.1092	499.512	79.0735	499.512	77.4597	499.512	79.0098	499.512	77.1478	499.512	78.9553	499.512	77.5696	499.512	79.0013	499.512	78.5765	499.512	79.0988	499.512	79.6384	499.512	79.0809	499.512	80.3424	499.512	78.7526	499.512	80.4685	499.512	77.9338	499.512	79.8992	499.512	76.4278	499.512	78.6056	499.512	73.9525	499.512	76.8612	499.512	70.293	499.512	75.8136	499.512	68.3232	499.512	76.6442	499.512	72.0236	499.512	78.3351	499.512	75.6827	499.512	79.7352	499.512	78.1336	499.512	80.5651	499.512	79.6809	499.512	80.8281	499.512	80.5434
517.09	83.4025	517.09	83.5831	517.09	82.7917	517.09	83.3073	517.09	81.8151	517.09	82.59	517.09	80.576	517.09	81.4904	517.09	79.2393	517.09	80.1177	517.09	78.1236	517.09	78.633	517.09	77.7401	517.09	77.2356	517.09	78.2887	517.09	76.1028	517.09	79.2145	517.09	75.2579	517.09	79.8283	517.09	74.4453	517.09	79.7381	517.09	73.1378	517.09	78.7513	517.09	70.482	517.09	76.7759	517.09	64.2187	517.09	74.0571	517.09	55.9001	517.09	72.3476	517.09	68.8653	517.09	73.4655	517.09	73.4655	517.09	75.2672	517.09	75.6756	517.09	76.3547	517.09	76.5269
536.133	83.0556	536.133	83.4562	536.133	82.2363	536.133	83.4859	536.133	80.9849	536.133	83.2215	536.133	79.3379	536.133	82.7622	536.133	77.4432	536.133	82.2106	536.133	75.7386	536.133	81.6363	536.133	75.0527	536.133	81.0387	536.133	75.6853	536.133	80.3464	536.133	76.7685	536.133	79.4591	536.133	77.468	536.133	78.2799	536.133	77.4523	536.133	76.6685	536.133	76.7083	536.133	74.2728	536.133	75.5596	536.133	70.0944	536.133	74.8374	536.133	59.1775	536.133	75.2341	536.133	63.858	536.133	76.2399	536.133	71.6937	536.133	77.0504	536.133	75.0808	536.133	77.2782	536.133	76.7167
555.176	83.3549	555.176	83.4467	555.176	82.8436	555.176	83.2116	555.176	81.869	555.176	82.7861	555.176	80.4225	555.176	82.3187	555.176	78.4877	555.176	81.9108	555.176	75.9913	555.176	81.5617	555.176	72.9956	555.176	81.1673	555.176	71.0269	555.176	80.5711	555.176	72.2828	555.176	79.6247	555.176	74.3347	555.176	78.2267	555.176	75.5488	555.176	76.3275	555.176	75.969	555.176	73.8458	555.176	76.0244	555.176	70.4135	555.176	76.1546	555.176	65.3464	555.176	76.5198	555.176	65.0009	555.176	76.957	555.176	70.5656	555.176	77.1964	555.176	74.1034	555.176	76.9841	555.176	76.0631
574.219	83.632	574.219	83.6086	574.219	83.2657	574.219	83.2235	574.219	82.5138	574.219	82.5566	574.219	81.3821	574.219	81.7447	574.219	79.835	574.219	80.9495	574.219	77.7608	574.219	80.2748	574.219	75.0556	574.219	79.6989	574.219	72.2523	574.219	79.1128	574.219	71.435	574.219	78.4257	574.219	72.4202	574.219	77.608	574.219	72.888	574.219	76.5876	574.219	72.2933	574.219	75.0578	574.219	71.4915	574.219	72.31	574.219	72.1797	574.219	66.7001	574.219	74.0557	574.219	61.1699	574.219	75.6825	574.219	69.6965	574.219	76.5828	574.219	73.8786	574.219	76.6901	574.219	75.9002
594.727	83.5837	594.727	83.389	594.727	83.3046	594.727	82.8009	594.727	82.5279	594.727	81.9642	594.727	81.2816	594.727	81.0816	594.727	79.6374	594.727	80.3635	594.727	77.6927	594.727	79.9229	594.727	75.5518	594.727	79.6931	594.727	73.3519	594.727	79.4667	594.727	71.3315	594.727	79.0161	594.727	69.7602	594.727	78.1823	594.727	68.7817	594.727	76.8797	594.727	68.6918	594.727	74.9737	594.727	69.9484	594.727	71.9645	594.727	72.1617	594.727	66.167	594.727	74.4149	594.727	60.7399	594.727	76.1715	594.727	70.0374	594.727	77.2187	594.727	74.4659	594.727	77.4289	594.727	76.628
615.234	82.0685	615.234	81.6654	615.234	82.0938	615.234	80.9367	615.234	81.7178	615.234	79.9998	615.234	80.9001	615.234	79.0523	615.234	79.5352	615.234	78.3156	615.234	77.4445	615.234	77.8917	615.234	74.6059	615.234	77.6916	615.234	72.3894	615.234	77.5491	615.234	72.9786	615.234	77.3571	615.234	74.0293	615.234	77.0899	615.234	73.5379	615.234	76.6975	615.234	70.9619	615.234	75.9424	615.234	66.9307	615.234	74.3206	615.234	68.4899	615.234	70.9661	615.234	72.4913	615.234	64.8027	615.234	74.916	615.234	66.9984	615.234	76.0674	615.234	72.4041	615.234	76.1577	615.234	75.0915
637.207	83.1101	637.207	82.5101	637.207	83.2441	637.207	81.4588	637.207	82.9068	637.207	80.0098	637.207	82.0701	637.207	78.2777	637.207	80.6514	637.207	76.4464	637.207	78.4819	637.207	74.7803	637.207	75.2745	637.207	73.5542	637.207	70.7984	637.207	72.7966	637.207	67.379	637.207	72.3181	637.207	68.9386	637.207	72.1295	637.207	70.3715	637.207	72.2592	637.207	69.9712	637.207	72.1867	637.207	68.1325	637.207	71.0627	637.207	67.9995	637.207	68.009	637.207	71.2924	637.207	64.2542	637.207	74.1592	637.207	68.5242	637.207	75.7045	637.207	72.8588	637.207	76.0368	637.207	75.1695
659.18	82.9368	659.18	82.4534	659.18	83.0632	659.18	81.6878	659.18	82.8038	659.18	80.73	659.18	82.161	659.18	79.6544	659.18	81.1003	659.18	78.5187	659.18	79.4599	659.18	77.3614	659.18	76.8875	659.18	76.1753	659.18	72.8451	659.18	74.9184	659.18	68.0272	659.18	73.6105	659.18	68.9388	659.18	72.4844	659.18	71.1655	659.18	71.9417	659.18	71.0934	659.18	71.9034	659.18	68.6425	659.18	71.5367	659.18	65.5427	659.18	69.9866	659.18	68.4542	659.18	67.3818	659.18	72.0344	659.18	67.8472	659.18	73.8877	659.18	71.2248	659.18	74.3388	659.18	73.4984
682.617	83.9746	682.617	83.5402	682.617	84.1194	682.617	82.8438	682.617	83.9339	682.617	81.9018	682.617	83.3702	682.617	80.746	682.617	82.3598	682.617	79.4775	682.617	80.7667	682.617	78.3221	682.617	78.3118	682.617	77.5379	682.617	74.4507	682.617	77.0686	682.617	68.2229	682.617	76.4561	682.617	63.7114	682.617	75.2377	682.617	67.2895	682.617	73.2774	682.617	68.1412	682.617	70.9189	682.617	65.6835	682.617	68.4846	682.617	61.8081	682.617	65.1031	682.617	68.0559	682.617	63.8011	682.617	73.0398	682.617	69.6623	682.617	75.62	682.617	73.8391	682.617	76.5242	682.617	75.9692
707.52	83.3338	707.52	82.868	707.52	83.5499	707.52	82.1918	707.52	83.5026	707.52	81.3464	707.52	83.1819	707.52	80.359	707.52	82.5208	707.52	79.2689	707.52	81.3601	707.52	78.1434	707.52	79.4714	707.52	77.0427	707.52	76.6354	707.52	75.9767	707.52	72.8688	707.52	74.9005	707.52	69.0664	707.52	73.7865	707.52	66.915	707.52	72.8251	707.52	66.1415	707.52	72.3171	707.52	65.6648	707.52	71.8557	707.52	66.7087	707.52	70.3715	707.52	69.6772	707.52	66.9627	707.52	72.1642	707.52	64.3726	707.52	73.342	707.52	68.403	707.52	73.2105	707.52	71.6913
732.422	83.8612	732.422	83.405	732.422	83.9823	732.422	82.7212	732.422	83.6824	732.422	81.8377	732.422	82.9755	732.422	80.7061	732.422	81.9491	732.422	79.3108	732.422	80.6104	732.422	77.7237	732.422	78.745	732.422	76.0109	732.422	75.9631	732.422	74.1377	732.422	71.9602	732.422	72.0221	732.422	68.3472	732.422	69.6854	732.422	69.2206	732.422	68.1557	732.422	70.6535	732.422	69.3206	732.422	70.0244	732.422	71.068	732.422	66.2169	732.422	71.355	732.422	59.5779	732.422	70.3017	732.422	66.412	732.422	70.0848	732.422	70.747	732.422	71.7102	732.422	72.617	732.422	72.8668
757.324	83.475	757.324	83.0911	757.324	83.8035	757.324	82.5783	757.324	83.9604	757.324	81.7314	757.324	83.7801	757.324	80.428	757.324	83.152	757.324	78.7911	757.324	81.9717	757.324	77.1525	757.324	79.9921	757.324	75.7504	757.324	76.6753	757.324	74.6097	757.324	71.4133	757.324	73.792	757.324	68.8588	757.324	73.2018	757.324	71.5378	757.324	72.3156	757.324	72.179	757.324	70.7838	757.324	70.4522	757.324	68.9894	757.324	66.3459	757.324	66.9381	757.324	65.5626	757.324	62.6059	757.324	70.7892	757.324	62.2828	757.324	73.7494	757.324	69.5703	757.324	74.502	757.324	73.2534
785.156	83.7976	785.156	83.6436	785.156	83.8285	785.156	83.2709	785.156	83.7623	785.156	82.4973	785.156	83.5542	785.156	81.1116	785.156	83.0614	785.156	78.9788	785.156	82.0599	785.156	76.1338	785.156	80.2577	785.156	73.0302	785.156	77.1895	785.156	71.0683	785.156	71.789	785.156	71.022	785.156	62.9457	785.156	70.8177	785.156	68.1407	785.156	68.696	785.156	71.146	785.156	67.5442	785.156	70.5835	785.156	71.4657	785.156	68.0091	785.156	74.0252	785.156	68.8889	785.156	74.7185	785.156	72.2838	785.156	74.8138	785.156	74.3253	785.156	75.245	785.156	75.3192	785.156	75.5954
811.523	83.2057	811.523	83.2342	811.523	83.1296	811.523	83.0262	811.523	82.9753	811.523	82.2855	811.523	82.6393	811.523	80.822	811.523	82.0742	811.523	78.6378	811.523	81.2254	811.523	75.8057	811.523	79.9148	811.523	72.2388	811.523	77.7645	811.523	69.1699	811.523	73.9395	811.523	70.3574	811.523	65.3962	811.523	71.8896	811.523	63.1211	811.523	70.8664	811.523	71.2168	811.523	65.9255	811.523	73.0546	811.523	61.4019	811.523	71.9323	811.523	67.7832	811.523	69.1143	811.523	69.638	811.523	69.0221	811.523	69.7898	811.523	71.8418	811.523	71.4727	811.523	73.4994	811.523	73.3112
840.82	82.6154	840.82	82.8029	840.82	82.2932	840.82	82.5779	840.82	82.0486	840.82	81.804	840.82	81.8076	840.82	80.5496	840.82	81.3243	840.82	78.9994	840.82	80.489	840.82	77.1555	840.82	79.3719	840.82	74.7113	840.82	77.8868	840.82	71.6633	840.82	75.4564	840.82	69.7175	840.82	70.8872	840.82	70.2298	840.82	62.7251	840.82	70.568	840.82	66.6517	840.82	68.4997	840.82	69.8867	840.82	64.2316	840.82	69.7136	840.82	68.7393	840.82	70.1829	840.82	72.7499	840.82	73.3325	840.82	74.4468	840.82	75.8428	840.82	75.5414	840.82	76.8753	840.82	76.5879
870.117	81.816	870.117	81.7442	870.117	81.564	870.117	81.3712	870.117	81.0383	870.117	80.7354	870.117	80.4522	870.117	79.9168	870.117	79.9593	870.117	79.0015	870.117	79.2446	870.117	77.9022	870.117	77.721	870.117	76.2351	870.117	75.0689	870.117	73.356	870.117	71.9938	870.117	68.0147	870.117	70.6013	870.117	59.5201	870.117	70.5584	870.117	66.1605	870.117	70.0647	870.117	68.8381	870.117	68.4256	870.117	66.7707	870.117	64.9955	870.117	56.701	870.117	62.5237	870.117	65.0581	870.117	67.4513	870.117	71.1709	870.117	71.6158	870.117	73.945	870.117	74.0642	870.117	74.8584
900.879	83.5676	900.879	83.2777	900.879	83.3369	900.879	82.4055	900.879	82.8341	900.879	81.0403	900.879	82.3183	900.879	79.3107	900.879	81.7424	900.879	77.4613	900.879	80.732	900.879	76.1553	900.879	78.6671	900.879	75.4067	900.879	74.1704	900.879	73.8127	900.879	61.5016	900.879	70.2992	900.879	70.0454	900.879	67.4288	900.879	74.4475	900.879	69.1351	900.879	75.2504	900.879	69.2931	900.879	74.4637	900.879	67.689	900.879	72.047	900.879	69.1354	900.879	69.7914	900.879	71.8048	900.879	73.3542	900.879	73.3738	900.879	76.4821	900.879	75.0159	900.879	77.4867	900.879	76.7731
933.105	82.5445	933.105	82.5411	933.105	82.2715	933.105	82.3725	933.105	81.6864	933.105	82.0906	933.105	80.9786	933.105	81.5764	933.105	80.4219	933.105	80.5111	933.105	79.8589	933.105	78.5648	933.105	78.7602	933.105	75.654	933.105	76.6258	933.105	71.3939	933.105	72.6796	933.105	61.4086	933.105	67.3263	933.105	63.9314	933.105	70.5438	933.105	70.6744	933.105	73.7093	933.105	71.6648	933.105	74.3518	933.105	69.7261	933.105	72.9812	933.105	67.3912	933.105	70.1537	933.105	66.8644	933.105	70.7099	933.105	67.5407	933.105	73.9582	933.105	71.8163	933.105	75.5373	933.105	74.9088
965.332	82.6759	965.332	82.7921	965.332	82.3208	965.332	82.8078	965.332	81.7831	965.332	82.7866	965.332	81.2373	965.332	82.5299	965.332	80.6167	965.332	81.7183	965.332	79.7385	965.332	80.1977	965.332	78.6344	965.332	78.0797	965.332	77.2493	965.332	75.4618	965.332	75.0617	965.332	71.6924	965.332	71.0482	965.332	63.3359	965.332	66.3139	965.332	60.4886	965.332	70.9265	965.332	67.4659	965.332	73.7979	965.332	67.8795	965.332	73.3022	965.332	70.2262	965.332	70.72	965.332	73.3606	965.332	71.2443	965.332	74.3485	965.332	74.1157	965.332	74.3823	965.332	75.3621	965.332	75.024
1000.49	83.9031	1000.49	84.0422	1000.49	83.3817	1000.49	83.5905	1000.49	82.715	1000.49	82.6462	1000.49	82.0461	1000.49	81.5757	1000.49	81.4303	1000.49	80.6229	1000.49	80.5397	1000.49	79.6379	1000.49	78.8581	1000.49	78.2444	1000.49	76.3486	1000.49	76.0832	1000.49	73.7646	1000.49	72.6737	1000.49	70.6855	1000.49	66.2491	1000.49	63.6991	1000.49	60.8756	1000.49	61.6541	1000.49	67.5521	1000.49	70.1486	1000.49	67.6282	1000.49	72.6565	1000.49	65.1778	1000.49	72.9895	1000.49	68.7742	1000.49	74.0487	1000.49	71.4692	1000.49	75.6036	1000.49	73.1694	1000.49	76.0436	1000.49	75.0459
1035.64	86.1513	1035.64	86.2572	1035.64	85.1537	1035.64	85.5127	1035.64	83.4252	1035.64	84.162	1035.64	81.5103	1035.64	82.6548	1035.64	80.2416	1035.64	81.3706	1035.64	79.5399	1035.64	80.1893	1035.64	78.3338	1035.64	78.3985	1035.64	75.536	1035.64	74.9814	1035.64	69.096	1035.64	68.998	1035.64	52.8823	1035.64	64.5312	1035.64	70.02	1035.64	66.1777	1035.64	73.7575	1035.64	66.3941	1035.64	74.4633	1035.64	64.0414	1035.64	73.0213	1035.64	64.4748	1035.64	69.7802	1035.64	71.8077	1035.64	69.4952	1035.64	75.4778	1035.64	72.6762	1035.64	76.6587	1035.64	74.931	1035.64	76.2996
1072.27	86.6155	1072.27	86.6782	1072.27	85.6791	1072.27	85.9733	1072.27	83.9963	1072.27	84.8098	1072.27	81.9882	1072.27	83.5015	1072.27	80.3023	1072.27	82.0534	1072.27	79.1462	1072.27	80.24	1072.27	77.9911	1072.27	77.8746	1072.27	76.2598	1072.27	74.5231	1072.27	73.5627	1072.27	68.6698	1072.27	69.1565	1072.27	59.8236	1072.27	68.1089	1072.27	70.5908	1072.27	73.2584	1072.27	74.3384	1072.27	74.5619	1072.27	73.8007	1072.27	72.0086	1072.27	68.987	1072.27	68.4604	1072.27	70.1106	1072.27	71.9931	1072.27	74.7333	1072.27	75.4915	1072.27	76.7159	1072.27	77.2368	1072.27	77.5286
1108.89	87.8526	1108.89	87.2873	1108.89	87.4961	1108.89	85.9966	1108.89	86.2291	1108.89	84.4452	1108.89	84.3248	1108.89	83.01	1108.89	82.4834	1108.89	81.5251	1108.89	80.8446	1108.89	79.4559	1108.89	78.3634	1108.89	76.6257	1108.89	74.6192	1108.89	73.1239	1108.89	71.0714	1108.89	67.6496	1108.89	67.3916	1108.89	63.2557	1108.89	61.9562	1108.89	68.8285	1108.89	71.8196	1108.89	71.2439	1108.89	75.8956	1108.89	70.6748	1108.89	75.9688	1108.89	66.0628	1108.89	72.7879	1108.89	58.3632	1108.89	68.2152	1108.89	70.8717	1108.89	71.3745	1108.89	75.5569	1108.89	75.2824	1108.89	76.7622
1148.44	88.22	1148.44	87.4288	1148.44	88.0443	1148.44	85.8894	1148.44	86.8957	1148.44	83.9818	1148.44	84.9816	1148.44	81.9506	1148.44	82.8472	1148.44	79.7278	1148.44	80.896	1148.44	77.3612	1148.44	78.5232	1148.44	75.861	1148.44	74.5998	1148.44	74.9644	1148.44	67.6735	1148.44	72.1963	1148.44	55.8229	1148.44	67.7341	1148.44	64.2575	1148.44	70.4353	1148.44	71.3554	1148.44	72.8949	1148.44	74.2001	1148.44	72.1396	1148.44	73.3187	1148.44	66.1222	1148.44	70.7095	1148.44	67.1507	1148.44	72.254	1148.44	73.3072	1148.44	75.1437	1148.44	75.9119	1148.44	76.888	1148.44	77.1387
1189.45	87.355	1189.45	86.6033	1189.45	87.4292	1189.45	85.3766	1189.45	86.6387	1189.45	83.4588	1189.45	85.09	1189.45	80.47	1189.45	83.2863	1189.45	77.0424	1189.45	81.617	1189.45	75.1138	1189.45	79.4251	1189.45	74.7911	1189.45	76.0335	1189.45	74.0195	1189.45	72.1493	1189.45	71.4447	1189.45	70.063	1189.45	67.0593	1189.45	71.1622	1189.45	68.468	1189.45	73.2464	1189.45	71.2776	1189.45	74.4539	1189.45	71.8699	1189.45	73.7	1189.45	71.7134	1189.45	71.0215	1189.45	71.3779	1189.45	72.0117	1189.45	71.8159	1189.45	75.3845	1189.45	74.3618	1189.45	76.9191	1189.45	76.5359
1230.47	86.9353	1230.47	86.382	1230.47	86.7532	1230.47	85.0136	1230.47	85.9146	1230.47	82.9442	1230.47	84.5102	1230.47	80.7227	1230.47	82.8357	1230.47	78.7653	1230.47	81.0629	1230.47	76.5919	1230.47	78.6914	1230.47	74.9596	1230.47	75.5398	1230.47	74.8684	1230.47	73.234	1230.47	74.2226	1230.47	72.8344	1230.47	71.9816	1230.47	72.2472	1230.47	70.5909	1230.47	73.4286	1230.47	71.7388	1230.47	74.471	1230.47	70.9105	1230.47	71.9032	1230.47	66.5849	1230.47	63.1152	1230.47	61.9456	1230.47	70.6678	1230.47	70.8293	1230.47	75.7593	1230.47	75.471	1230.47	77.7197	1230.47	77.5703
1274.41	85.8989	1274.41	85.1831	1274.41	85.9801	1274.41	83.9266	1274.41	85.4547	1274.41	82.5874	1274.41	84.3529	1274.41	81.4576	1274.41	82.8234	1274.41	80.1624	1274.41	81.1403	1274.41	78.2458	1274.41	78.9878	1274.41	75.75	1274.41	75.1935	1274.41	73.3998	1274.41	68.0454	1274.41	71.6229	1274.41	50.0712	1274.41	70.3292	1274.41	55.2253	1274.41	70.7285	1274.41	63.2791	1274.41	72.6019	1274.41	71.1338	1274.41	71.6453	1274.41	72.253	1274.41	65.5093	1274.41	66.6567	1274.41	54.6947	1274.41	67.0433	1274.41	69.305	1274.41	73.6358	1274.41	74.8702	1274.41	76.1707	1274.41	76.6796
1319.82	85.3846	1319.82	85.2282	1319.82	85.0933	1319.82	84.6112	1319.82	84.4995	1319.82	83.5636	1319.82	83.6132	1319.82	81.7926	1319.82	82.485	1319.82	79.4063	1319.82	81.3445	1319.82	76.9839	1319.82	79.8126	1319.82	74.6644	1319.82	77.3663	1319.82	72.8329	1319.82	74.5523	1319.82	70.8322	1319.82	71.8688	1319.82	67.6564	1319.82	70.4173	1319.82	67.0997	1319.82	72.4482	1319.82	71.9538	1319.82	74.3672	1319.82	72.4654	1319.82	73.3672	1319.82	65.59	1319.82	68.0478	1319.82	67.5011	1319.82	62.7529	1319.82	71.1706	1319.82	71.8167	1319.82	73.1396	1319.82	75.1792	1319.82	75.3861
1366.7	84.9911	1366.7	84.6225	1366.7	84.6424	1366.7	83.919	1366.7	83.7756	1366.7	83.2377	1366.7	82.4846	1366.7	82.2432	1366.7	80.9459	1366.7	80.8601	1366.7	79.9136	1366.7	78.7519	1366.7	78.9586	1366.7	74.6035	1366.7	76.8309	1366.7	67.7779	1366.7	72.7745	1366.7	66.2275	1366.7	69.6179	1366.7	67.6567	1366.7	70.0675	1366.7	68.993	1366.7	71.6043	1366.7	73.3859	1366.7	73.9097	1366.7	75.2346	1366.7	73.7315	1366.7	71.977	1366.7	68.844	1366.7	68.2335	1366.7	54.6388	1366.7	69.6705	1366.7	71.4724	1366.7	70.4853	1366.7	75.2741	1366.7	74.7485
1413.57	84.0555	1413.57	83.8407	1413.57	84.1075	1413.57	83.8903	1413.57	83.7311	1413.57	83.4187	1413.57	82.8896	1413.57	81.8456	1413.57	81.2545	1413.57	79.9658	1413.57	79.299	1413.57	77.9148	1413.57	77.7442	1413.57	74.4445	1413.57	75.5971	1413.57	70.8612	1413.57	71.5663	1413.57	68.1963	1413.57	63.1374	1413.57	65.7291	1413.57	53.6931	1413.57	65.1333	1413.57	59.0588	1413.57	71.5035	1413.57	66.6298	1413.57	75.2757	1413.57	70.5558	1413.57	73.9686	1413.57	67.6852	1413.57	65.8044	1413.57	55.8203	1413.57	58.8509	1413.57	66.0285	1413.57	66.5034	1413.57	72.0313	1413.57	72.0393
1463.38	84.0873	1463.38	84.075	1463.38	84.1854	1463.38	84.241	1463.38	83.9374	1463.38	83.906	1463.38	83.0634	1463.38	82.5924	1463.38	81.2535	1463.38	80.2903	1463.38	78.7568	1463.38	77.2133	1463.38	76.3551	1463.38	73.5622	1463.38	74.3852	1463.38	69.7533	1463.38	71.5835	1463.38	64.1257	1463.38	66.5603	1463.38	59.5437	1463.38	63.4244	1463.38	59.2223	1463.38	67.1349	1463.38	66.9073	1463.38	70.4982	1463.38	71.8835	1463.38	70.3764	1463.38	70.9904	1463.38	66.4655	1463.38	62.3014	1463.38	55.8515	1463.38	61.2399	1463.38	67.1503	1463.38	66.1289	1463.38	70.0475	1463.38	68.9571
1516.11	84.7217	1516.11	84.8406	1516.11	84.5682	1516.11	84.7077	1516.11	84.2098	1516.11	84.1503	1516.11	83.1678	1516.11	83.0126	1516.11	81.1284	1516.11	80.8577	1516.11	78.5227	1516.11	77.4139	1516.11	76.1079	1516.11	73.4184	1516.11	73.9439	1516.11	69.4791	1516.11	70.3739	1516.11	64.6075	1516.11	62.3274	1516.11	59.5519	1516.11	54.2684	1516.11	59.0108	1516.11	64.8997	1516.11	61.8578	1516.11	72.1744	1516.11	70.6214	1516.11	73.4841	1516.11	70.9973	1516.11	68.8427	1516.11	61.437	1516.11	51.2796	1516.11	59.6084	1516.11	68.128	1516.11	62.5909	1516.11	69.3947	1516.11	66.0158
1568.85	85.2066	1568.85	85.3651	1568.85	84.6898	1568.85	85.0613	1568.85	84.0133	1568.85	84.2947	1568.85	83.0847	1568.85	82.629	1568.85	81.2886	1568.85	79.5633	1568.85	78.5624	1568.85	75.6814	1568.85	75.8303	1568.85	71.9675	1568.85	73.2154	1568.85	68.389	1568.85	70.6316	1568.85	64.9769	1568.85	68.13	1568.85	61.9146	1568.85	68.2803	1568.85	65.0329	1568.85	70.3924	1568.85	65.2478	1568.85	71.8394	1568.85	67.5529	1568.85	72.7981	1568.85	69.7228	1568.85	71.0193	1568.85	57.8399	1568.85	63.3705	1568.85	63.676	1568.85	60.9131	1568.85	62.0781	1568.85	64.1166	1568.85	61.0274
1624.51	85.8462	1624.51	85.6641	1624.51	85.2666	1624.51	85.0053	1624.51	84.2146	1624.51	84.1164	1624.51	82.8289	1624.51	82.3224	1624.51	80.8134	1624.51	79.0041	1624.51	78.1006	1624.51	74.5349	1624.51	75.2952	1624.51	68.564	1624.51	72.1386	1624.51	60.8524	1624.51	67.9472	1624.51	55.2894	1624.51	64.798	1624.51	49.1842	1624.51	64.6369	1624.51	58.8374	1624.51	67.505	1624.51	66.8435	1624.51	71.2916	1624.51	66.8893	1624.51	72.5325	1624.51	68.6684	1624.51	70.7007	1624.51	62.5483	1624.51	64.3434	1624.51	62.0319	1624.51	52.9066	1624.51	64.6944	1624.51	56.891	1624.51	52.8682
1681.64	86.3575	1681.64	86.0796	1681.64	85.8014	1681.64	85.1577	1681.64	84.3382	1681.64	83.2981	1681.64	82.7239	1681.64	80.4901	1681.64	80.8938	1681.64	76.9322	1681.64	77.914	1681.64	73.8838	1681.64	74.2783	1681.64	70.9199	1681.64	70.4748	1681.64	61.8687	1681.64	66.9989	1681.64	45.6893	1681.64	64.1535	1681.64	62.6527	1681.64	64.7911	1681.64	65.5404	1681.64	69.0658	1681.64	66.6946	1681.64	70.9744	1681.64	66.4354	1681.64	70.8805	1681.64	66.4451	1681.64	69.8165	1681.64	62.5193	1681.64	64.4167	1681.64	62.7754	1681.64	54.2748	1681.64	66.4098	1681.64	61.6942	1681.64	51.5575
1741.7	86.3608	1741.7	85.8579	1741.7	85.8111	1741.7	84.4233	1741.7	84.1936	1741.7	82.194	1741.7	82.1277	1741.7	78.7264	1741.7	80.0422	1741.7	73.8518	1741.7	77.4298	1741.7	69.3676	1741.7	73.9337	1741.7	60.4888	1741.7	70.378	1741.7	50.5313	1741.7	66.0031	1741.7	60.2189	1741.7	59.8511	1741.7	63.4854	1741.7	63.9644	1741.7	66.2555	1741.7	68.7863	1741.7	69.0927	1741.7	71.19	1741.7	69.5844	1741.7	70.6959	1741.7	66.5188	1741.7	68.4788	1741.7	62.0617	1741.7	60.6355	1741.7	55.881	1741.7	54.7732	1741.7	65.9085	1741.7	50.1043	1741.7	63.2592
1803.22	86.5524	1803.22	86.0168	1803.22	85.8251	1803.22	84.1383	1803.22	84.1455	1803.22	81.5012	1803.22	81.8266	1803.22	78.5152	1803.22	79.7957	1803.22	75.7827	1803.22	77.2242	1803.22	72.9203	1803.22	73.6997	1803.22	71.26	1803.22	70.9594	1803.22	71.379	1803.22	68.1607	1803.22	69.2603	1803.22	64.8805	1803.22	69.0011	1803.22	62.6807	1803.22	69.0928	1803.22	64.2954	1803.22	69.1133	1803.22	69.5336	1803.22	69.2431	1803.22	70.6708	1803.22	67.5781	1803.22	69.5021	1803.22	59.4088	1803.22	58.037	1803.22	61.8077	1803.22	60.9436	1803.22	67.7493	1803.22	53.0382	1803.22	67.2552
1866.21	86.9294	1866.21	86.1072	1866.21	86.3966	1866.21	84.1145	1866.21	84.7387	1866.21	81.282	1866.21	81.8828	1866.21	77.658	1866.21	78.9909	1866.21	74.5543	1866.21	75.6932	1866.21	72.5408	1866.21	72.0542	1866.21	72.9771	1866.21	70.4458	1866.21	73.7927	1866.21	68.6708	1866.21	69.3134	1866.21	68.9695	1866.21	72.7938	1866.21	71.6757	1866.21	73.5899	1866.21	73.0852	1866.21	71.6232	1866.21	73.2656	1866.21	72.5264	1866.21	73.3794	1866.21	72.1012	1866.21	72.2116	1866.21	67.0306	1866.21	64.1984	1866.21	58.8448	1866.21	53.8609	1866.21	69.7918	1866.21	62.4663	1866.21	70.3379
1932.13	87.1787	1932.13	86.1076	1932.13	87.0362	1932.13	84.0582	1932.13	85.5769	1932.13	80.9096	1932.13	82.7725	1932.13	78.5586	1932.13	79.1381	1932.13	77.8429	1932.13	76.0084	1932.13	77.8642	1932.13	73.2458	1932.13	78.9024	1932.13	73.596	1932.13	77.3012	1932.13	73.9443	1932.13	68.7868	1932.13	68.9973	1932.13	67.6729	1932.13	64.5151	1932.13	73.8336	1932.13	70.1082	1932.13	73.3122	1932.13	71.4543	1932.13	72.6626	1932.13	72.5602	1932.13	72.7564	1932.13	71.7649	1932.13	69.3517	1932.13	66.2182	1932.13	58.118	1932.13	56.6653	1932.13	71.2004	1932.13	62.509	1932.13	71.4244
1999.51	86.2531	1999.51	85.8112	1999.51	86.5138	1999.51	84.8303	1999.51	85.3752	1999.51	82.7316	1999.51	82.5345	1999.51	81.035	1999.51	79.1778	1999.51	80.0229	1999.51	75.9684	1999.51	78.9023	1999.51	74.8206	1999.51	77.6201	1999.51	76.2309	1999.51	76.9849	1999.51	77.0299	1999.51	71.6712	1999.51	70.1031	1999.51	67.0446	1999.51	72.2917	1999.51	70.7302	1999.51	73.6289	1999.51	71.0505	1999.51	71.675	1999.51	75.5574	1999.51	73.5361	1999.51	76.1046	1999.51	74.8739	1999.51	72.9727	1999.51	72.4831	1999.51	59.1465	1999.51	63.2874	1999.51	72.8568	1999.51	64.5917	1999.51	73.2225
2069.82	85.3708	2069.82	85.0655	2069.82	85.3742	2069.82	84.2894	2069.82	84.0311	2069.82	81.9666	2069.82	81.4374	2069.82	80.044	2069.82	78.9165	2069.82	80.1064	2069.82	78.5709	2069.82	80.1251	2069.82	77.525	2069.82	77.9562	2069.82	75.9259	2069.82	72.634	2069.82	75.9101	2069.82	65.2979	2069.82	70.3691	2069.82	61.6765	2069.82	61.9627	2069.82	67.962	2069.82	67.1794	2069.82	66.9474	2069.82	67.7133	2069.82	73.2934	2069.82	72.0671	2069.82	73.3342	2069.82	72.6977	2069.82	70.0503	2069.82	70.5938	2069.82	67.056	2069.82	66.2894	2069.82	70.4137	2069.82	69.9859	2069.82	74.4575
2143.07	83.9675	2143.07	84.904	2143.07	84.6881	2143.07	84.2519	2143.07	84.5747	2143.07	81.5953	2143.07	81.7538	2143.07	79.476	2143.07	77.8219	2143.07	79.437	2143.07	76.9897	2143.07	77.9665	2143.07	77.2748	2143.07	73.0465	2143.07	77.1969	2143.07	69.8475	2143.07	76.1356	2143.07	66.9584	2143.07	67.515	2143.07	64.7023	2143.07	67.4045	2143.07	66.1021	2143.07	69.4456	2143.07	63.4596	2143.07	64.7616	2143.07	74.7033	2143.07	73.3417	2143.07	75.8046	2143.07	75.7694	2143.07	73.0184	2143.07	73.8307	2143.07	67.4108	2143.07	71.1955	2143.07	72.4056	2143.07	72.953	2143.07	75.6404
2219.24	83.2647	2219.24	84.1619	2219.24	83.0934	2219.24	83.7726	2219.24	84.0606	2219.24	81.7341	2219.24	82.2604	2219.24	78.5835	2219.24	78.5884	2219.24	76.9587	2219.24	75.6654	2219.24	76.3572	2219.24	75.7992	2219.24	74.8272	2219.24	74.5404	2219.24	72.9179	2219.24	72.2595	2219.24	67.3446	2219.24	66.9769	2219.24	64.3915	2219.24	65.486	2219.24	65.2724	2219.24	65.4539	2219.24	60.6198	2219.24	66.9144	2219.24	73.4529	2219.24	74.2067	2219.24	76.014	2219.24	76.1648	2219.24	74.0168	2219.24	73.4978	2219.24	70.2869	2219.24	67.986	2219.24	72.5666	2219.24	71.1962	2219.24	74.204
2296.88	83.9511	2296.88	83.8428	2296.88	83.3494	2296.88	83.3319	2296.88	82.9773	2296.88	81.7451	2296.88	81.879	2296.88	78.2362	2296.88	78.7145	2296.88	76.4302	2296.88	75.0631	2296.88	75.5842	2296.88	73.8249	2296.88	71.9534	2296.88	73.1634	2296.88	71.531	2296.88	74.1271	2296.88	72.0702	2296.88	69.495	2296.88	69.223	2296.88	67.119	2296.88	64.2049	2296.88	69.0356	2296.88	63.0218	2296.88	62.8582	2296.88	73.6965	2296.88	71.9024	2296.88	76.6683	2296.88	75.5593	2296.88	73.7896	2296.88	72.8399	2296.88	69.9298	2296.88	65.4952	2296.88	72.5788	2296.88	70.4222	2296.88	74.6049
2378.91	84.8842	2378.91	83.729	2378.91	84.0928	2378.91	81.98	2378.91	82.6086	2378.91	80.469	2378.91	81.1394	2378.91	78.6386	2378.91	78.9394	2378.91	75.6697	2378.91	75.9109	2378.91	74.3704	2378.91	73.7765	2378.91	72.4889	2378.91	72.0791	2378.91	71.1929	2378.91	72.0755	2378.91	69.7739	2378.91	71.7996	2378.91	64.8472	2378.91	66.1132	2378.91	67.7501	2378.91	63.522	2378.91	56.8096	2378.91	49.5754	2378.91	71.9895	2378.91	71.3717	2378.91	75.1887	2378.91	76.1516	2378.91	73.802	2378.91	73.1528	2378.91	68.291	2378.91	67.2347	2378.91	73.4414	2378.91	71.6308	2378.91	75.5569
2462.4	84.8598	2462.4	83.8009	2462.4	84.2576	2462.4	82.0129	2462.4	82.7228	2462.4	81.1774	2462.4	81.1016	2462.4	79.6668	2462.4	79.151	2462.4	75.5798	2462.4	77.1397	2462.4	74.1366	2462.4	75.4213	2462.4	70.2972	2462.4	74.5119	2462.4	63.6461	2462.4	72.5316	2462.4	65.3945	2462.4	69.5317	2462.4	64.9247	2462.4	65.0433	2462.4	66.0201	2462.4	67.2791	2462.4	65.0438	2462.4	57.9014	2462.4	71.2407	2462.4	70.2271	2462.4	76.2521	2462.4	74.9853	2462.4	74.887	2462.4	73.4564	2462.4	68.8307	2462.4	68.4869	2462.4	73.2663	2462.4	72.993	2462.4	76.5022
2548.83	85.3349	2548.83	84.3019	2548.83	84.6076	2548.83	82.6293	2548.83	82.6054	2548.83	82.0187	2548.83	81.0954	2548.83	80.6518	2548.83	80.0518	2548.83	77.2712	2548.83	78.1889	2548.83	73.7686	2548.83	76.2337	2548.83	71.422	2548.83	74.9321	2548.83	67.6937	2548.83	73.7983	2548.83	58.651	2548.83	70.6094	2548.83	58.0692	2548.83	67.1089	2548.83	69.1456	2548.83	70.4174	2548.83	69.9809	2548.83	62.5484	2548.83	71.4475	2548.83	69.4082	2548.83	75.9044	2548.83	74.7942	2548.83	75.5146	2548.83	72.9813	2548.83	70.4785	2548.83	67.9315	2548.83	72.0975	2548.83	74.7428	2548.83	77.0929
2639.65	85.4164	2639.65	84.965	2639.65	85.0267	2639.65	82.8253	2639.65	83.6346	2639.65	81.2733	2639.65	81.6245	2639.65	80.1998	2639.65	80.7231	2639.65	78.2295	2639.65	78.6595	2639.65	74.3171	2639.65	76.1028	2639.65	72.6853	2639.65	73.5302	2639.65	70.733	2639.65	72.3289	2639.65	68.585	2639.65	70.1457	2639.65	64.9175	2639.65	66.0732	2639.65	64.9211	2639.65	67.3304	2639.65	68.8359	2639.65	66.8615	2639.65	70.867	2639.65	65.9816	2639.65	74.5751	2639.65	71.809	2639.65	73.5853	2639.65	72.1733	2639.65	71.0271	2639.65	67.8324	2639.65	71.6382	2639.65	73.4152	2639.65	76.4892
2731.93	85.0483	2731.93	84.9929	2731.93	84.6254	2731.93	83.558	2731.93	83.6187	2731.93	80.4744	2731.93	81.6335	2731.93	79.2247	2731.93	80.4781	2731.93	77.4695	2731.93	77.8986	2731.93	75.3714	2731.93	73.7523	2731.93	72.1546	2731.93	71.7273	2731.93	65.9085	2731.93	69.692	2731.93	64.3399	2731.93	67.9172	2731.93	62.9599	2731.93	65.9502	2731.93	65.4358	2731.93	65.6846	2731.93	67.8814	2731.93	64.4434	2731.93	69.698	2731.93	65.5252	2731.93	72.8583	2731.93	67.8877	2731.93	71.1921	2731.93	69.9454	2731.93	69.3484	2731.93	66.7839	2731.93	70.2569	2731.93	70.239	2731.93	73.6699
2828.61	84.0095	2828.61	84.1193	2828.61	84.6742	2828.61	83.3279	2828.61	83.7104	2828.61	80.1893	2828.61	81.1689	2828.61	77.5616	2828.61	79.5354	2828.61	76.2557	2828.61	76.5136	2828.61	73.4789	2828.61	70.6625	2828.61	69.6443	2828.61	67.276	2828.61	68.8761	2828.61	67.8928	2828.61	70.2605	2828.61	64.6953	2828.61	67.0935	2828.61	63.0613	2828.61	66.0573	2828.61	65.1233	2828.61	68.0728	2828.61	63.451	2828.61	67.5933	2828.61	65.3589	2828.61	71.7654	2828.61	68.1117	2828.61	69.6304	2828.61	66.5804	2828.61	66.4469	2828.61	65.1952	2828.61	67.1362	2828.61	65.6913	2828.61	68.7635
2928.22	83.1463	2928.22	83.0056	2928.22	83.7663	2928.22	81.9728	2928.22	83.5773	2928.22	79.558	2928.22	80.9032	2928.22	75.7697	2928.22	77.3368	2928.22	73.8852	2928.22	74.8367	2928.22	69.9093	2928.22	68.5994	2928.22	67.8201	2928.22	59.6751	2928.22	62.2249	2928.22	65.465	2928.22	64.1395	2928.22	64.1494	2928.22	65.7739	2928.22	62.522	2928.22	62.1608	2928.22	61.3968	2928.22	66.2007	2928.22	62.0622	2928.22	66.7127	2928.22	65.1847	2928.22	69.4747	2928.22	68.1958	2928.22	69.5984	2928.22	65.4436	2928.22	60.6352	2928.22	62.105	2928.22	60.9635	2928.22	61.5983	2928.22	62.0042
3030.76	82.3365	3030.76	82.7659	3030.76	82.3722	3030.76	81.493	3030.76	81.7811	3030.76	78.6644	3030.76	79.3528	3030.76	75.1103	3030.76	76.5255	3030.76	71.6389	3030.76	73.804	3030.76	66.5229	3030.76	70.3701	3030.76	64.8433	3030.76	60.4364	3030.76	57.5926	3030.76	63.4304	3030.76	58.9154	3030.76	64.3471	3030.76	65.5395	3030.76	56.737	3030.76	65.6021	3030.76	58.4785	3030.76	64.2123	3030.76	64.9959	3030.76	65.7695	3030.76	66.3766	3030.76	65.6171	3030.76	66.2799	3030.76	66.4859	3030.76	59.3632	3030.76	57.4289	3030.76	57.7955	3030.76	49.9472	3030.76	57.8478	3030.76	55.979
3137.7	81.8384	3137.7	81.6864	3137.7	81.5053	3137.7	80.4448	3137.7	80.9449	3137.7	77.829	3137.7	78.611	3137.7	74.2038	3137.7	75.7699	3137.7	71.5849	3137.7	72.429	3137.7	64.2175	3137.7	67.7695	3137.7	53.1366	3137.7	65.7829	3137.7	57.9994	3137.7	60.1339	3137.7	60.0663	3137.7	66.3008	3137.7	66.2732	3137.7	61.9955	3137.7	66.9741	3137.7	61.2462	3137.7	64.1376	3137.7	64.8366	3137.7	67.1446	3137.7	68.1968	3137.7	60.8038	3137.7	68.1544	3137.7	61.9559	3137.7	57.0723	3137.7	47.1608	3137.7	62.2135	3137.7	59.2784	3137.7	51.4678	3137.7	62.4108
3249.02	82.1394	3249.02	81.3051	3249.02	81.5592	3249.02	80.3613	3249.02	80.1281	3249.02	77.8107	3249.02	79.0537	3249.02	74.4669	3249.02	76.2369	3249.02	72.1899	3249.02	71.4228	3249.02	67.3907	3249.02	65.8697	3249.02	60.1197	3249.02	67.4496	3249.02	58.2153	3249.02	55.0027	3249.02	62.0556	3249.02	66.5744	3249.02	62.5173	3249.02	60.8298	3249.02	67.7309	3249.02	62.1193	3249.02	67.6474	3249.02	67.2979	3249.02	69.0615	3249.02	67.2651	3249.02	64.9945	3249.02	67.5301	3249.02	56.5999	3249.02	49.058	3249.02	54.6973	3249.02	66.1036	3249.02	63.8174	3249.02	61.4431	3249.02	65.0407
3363.28	80.8591	3363.28	79.8794	3363.28	80.734	3363.28	79.4443	3363.28	80.2019	3363.28	77.8607	3363.28	79.7929	3363.28	75.0531	3363.28	76.2224	3363.28	72.0404	3363.28	71.4852	3363.28	64.9313	3363.28	64.9385	3363.28	59.9057	3363.28	66.6437	3363.28	51.017	3363.28	53.9485	3363.28	65.2594	3363.28	63.7048	3363.28	61.9404	3363.28	63.3941	3363.28	67.483	3363.28	61.5002	3363.28	69.299	3363.28	69.0597	3363.28	69.5951	3363.28	66.1667	3363.28	67.3879	3363.28	65.0156	3363.28	60.315	3363.28	56.528	3363.28	61.1759	3363.28	67.9764	3363.28	66.6744	3363.28	64.8247	3363.28	64.5938
3481.93	81.3783	3481.93	80.8242	3481.93	81.1482	3481.93	78.7564	3481.93	80.2754	3481.93	78.6927	3481.93	79.538	3481.93	76.3523	3481.93	76.7021	3481.93	70.741	3481.93	70.3255	3481.93	62.3871	3481.93	67.5554	3481.93	50.4458	3481.93	60.0258	3481.93	47.3125	3481.93	51.4232	3481.93	66.7969	3481.93	65.6195	3481.93	65.6518	3481.93	64.5832	3481.93	65.6758	3481.93	57.7821	3481.93	70.6056	3481.93	67.737	3481.93	68.3309	3481.93	66.9045	3481.93	67.1419	3481.93	59.5967	3481.93	62.0485	3481.93	63.0412	3481.93	65.603	3481.93	69.8918	3481.93	69.3544	3481.93	67.29	3481.93	66.6232
3604.98	81.9444	3604.98	82.3082	3604.98	82.2868	3604.98	80.9871	3604.98	81.9221	3604.98	78.9462	3604.98	79.5004	3604.98	76.6067	3604.98	76.2066	3604.98	70.2887	3604.98	69.6013	3604.98	67.4731	3604.98	70.1612	3604.98	53.3492	3604.98	62.3086	3604.98	40.6117	3604.98	54.6607	3604.98	66.4443	3604.98	63.3771	3604.98	65.9032	3604.98	64.617	3604.98	61.6136	3604.98	53.2579	3604.98	70.5039	3604.98	66.1541	3604.98	68.7062	3604.98	66.193	3604.98	65.6499	3604.98	62.7758	3604.98	61.107	3604.98	64.8434	3604.98	67.273	3604.98	68.623	3604.98	68.6062	3604.98	68.5766	3604.98	67.183
3732.42	84.0988	3732.42	83.6114	3732.42	83.5778	3732.42	82.3979	3732.42	82.9067	3732.42	79.7783	3732.42	80.3324	3732.42	76.1015	3732.42	76.0818	3732.42	69.6108	3732.42	71.5672	3732.42	70.028	3732.42	68.8647	3732.42	58.7234	3732.42	62.2715	3732.42	55.2657	3732.42	61.3663	3732.42	64.034	3732.42	59.0537	3732.42	63.8097	3732.42	65.2686	3732.42	59.9361	3732.42	47.0949	3732.42	69.6326	3732.42	65.8159	3732.42	68.3951	3732.42	68.2515	3732.42	64.4328	3732.42	63.0086	3732.42	59.2	3732.42	64.2925	3732.42	66.1516	3732.42	64.4399	3732.42	67.0706	3732.42	68.2938	3732.42	66.822
3864.26	84.4379	3864.26	84.3683	3864.26	84.4828	3864.26	83.6822	3864.26	83.5666	3864.26	80.9148	3864.26	80.9459	3864.26	76.2625	3864.26	76.3714	3864.26	72.2162	3864.26	73.8732	3864.26	70.3867	3864.26	68.3851	3864.26	52.1761	3864.26	60.821	3864.26	59.1467	3864.26	61.7488	3864.26	63.4116	3864.26	62.4546	3864.26	60.7866	3864.26	69.1708	3864.26	53.8114	3864.26	58.2487	3864.26	65.362	3864.26	67.1497	3864.26	67.6517	3864.26	67.5874	3864.26	63.5249	3864.26	63.6021	3864.26	63.4638	3864.26	66.025	3864.26	60.8374	3864.26	60.4871	3864.26	61.9718	3864.26	63.2008	3864.26	64.247
4000.49	85.3398	4000.49	84.0999	4000.49	84.5138	4000.49	84.2362	4000.49	83.8916	4000.49	82.1589	4000.49	82.6108	4000.49	75.9374	4000.49	77.7735	4000.49	75.3032	4000.49	75.7817	4000.49	70.5588	4000.49	69.8328	4000.49	59.4702	4000.49	58.2707	4000.49	62.1227	4000.49	46.8283	4000.49	61.4342	4000.49	66.5158	4000.49	65.7164	4000.49	71.4929	4000.49	62.02	4000.49	65.0907	4000.49	59.2886	4000.49	65.8947	4000.49	68.4441	4000.49	60.4548	4000.49	59.9292	4000.49	59.7922	4000.49	66.8644	4000.49	65.6157	4000.49	64.4533	4000.49	61.1449	4000.49	62.6011	4000.49	60.1677	4000.49	67.9412
4141.11	85.7035	4141.11	84.3846	4141.11	84.9991	4141.11	84.914	4141.11	83.7934	4141.11	82.337	4141.11	83.0148	4141.11	77.4123	4141.11	79.5039	4141.11	78.0877	4141.11	77.3247	4141.11	67.7493	4141.11	68.9677	4141.11	69.1699	4141.11	70.1089	4141.11	62.9665	4141.11	61.2021	4141.11	60.3266	4141.11	65.398	4141.11	69.7238	4141.11	69.0789	4141.11	63.5865	4141.11	67.63	4141.11	60.7682	4141.11	64.9015	4141.11	70.5708	4141.11	63.3274	4141.11	56.2837	4141.11	54.9211	4141.11	67.9532	4141.11	68.7318	4141.11	68.0467	4141.11	61.2087	4141.11	58.5544	4141.11	59.7061	4141.11	69.0553
4287.6	85.5604	4287.6	84.3654	4287.6	84.7982	4287.6	84.2342	4287.6	84.9059	4287.6	82.3942	4287.6	83.0604	4287.6	79.118	4287.6	80.767	4287.6	77.8361	4287.6	76.6572	4287.6	63.5498	4287.6	71.0994	4287.6	72.5305	4287.6	71.4695	4287.6	52.141	4287.6	63.2246	4287.6	52.23	4287.6	66.5749	4287.6	65.2682	4287.6	68.4001	4287.6	61.1774	4287.6	63.0611	4287.6	47.2864	4287.6	64.9066	4287.6	69.3715	4287.6	68.8682	4287.6	56.7218	4287.6	63.1161	4287.6	69.5972	4287.6	68.6465	4287.6	65.4652	4287.6	61.3706	4287.6	55.4805	4287.6	53.1138	4287.6	69.5909
4438.48	84.7758	4438.48	83.8948	4438.48	84.0661	4438.48	83.7818	4438.48	84.315	4438.48	81.1249	4438.48	82.3551	4438.48	78.5135	4438.48	80.1148	4438.48	74.1723	4438.48	73.405	4438.48	68.2963	4438.48	73.6446	4438.48	73.6754	4438.48	70.9197	4438.48	57.7265	4438.48	54.5848	4438.48	64.2695	4438.48	67.4287	4438.48	68.6074	4438.48	70.7704	4438.48	58.0129	4438.48	58.232	4438.48	64.8046	4438.48	67.1132	4438.48	67.6596	4438.48	68.5613	4438.48	62.3858	4438.48	68.3688	4438.48	69.2799	4438.48	67.0557	4438.48	57.7049	4438.48	59.9404	4438.48	65.0896	4438.48	60.157	4438.48	66.7808
4595.21	84.6668	4595.21	83.7473	4595.21	83.5286	4595.21	83.0399	4595.21	83.467	4595.21	79.5315	4595.21	81.2629	4595.21	79.022	4595.21	79.9132	4595.21	69.4425	4595.21	73.2802	4595.21	74.3428	4595.21	75.3567	4595.21	72.7036	4595.21	71.2383	4595.21	62.0882	4595.21	52.8007	4595.21	65.6538	4595.21	64.1702	4595.21	69.0238	4595.21	70.4163	4595.21	54.8596	4595.21	46.3523	4595.21	68.6706	4595.21	67.5484	4595.21	66.0815	4595.21	65.5234	4595.21	69.3169	4595.21	69.2996	4595.21	68.2157	4595.21	60.3702	4595.21	62.4665	4595.21	62.2644	4595.21	68.2101	4595.21	67.1668	4595.21	66.2679
4756.35	83.5577	4756.35	82.949	4756.35	83.6717	4756.35	82.9244	4756.35	83.4108	4756.35	78.9561	4756.35	80.9174	4756.35	78.2561	4756.35	80.916	4756.35	72.2396	4756.35	76.6981	4756.35	77.3913	4756.35	76.579	4756.35	67.1417	4756.35	68.6788	4756.35	68.0389	4756.35	60.5495	4756.35	68.5206	4756.35	68.307	4756.35	69.8778	4756.35	69.0377	4756.35	64.2896	4756.35	55.407	4756.35	67.7178	4756.35	66.3753	4756.35	61.512	4756.35	59.4703	4756.35	68.3619	4756.35	68.9649	4756.35	64.2366	4756.35	62.0835	4756.35	66.3544	4756.35	66.5042	4756.35	67.0584	4756.35	68.4879	4756.35	68.1624
4924.8	83.828	4924.8	83.699	4924.8	83.3863	4924.8	83.2285	4924.8	82.5605	4924.8	80.7166	4924.8	80.6168	4924.8	77.7141	4924.8	80.2889	4924.8	77.1799	4924.8	77.5517	4924.8	76.7168	4924.8	75.2637	4924.8	60.953	4924.8	63.7671	4924.8	69.3736	4924.8	58.0629	4924.8	70.2881	4924.8	70.5916	4924.8	66.4962	4924.8	70.2492	4924.8	64.0867	4924.8	58.6576	4924.8	61.7732	4924.8	62.3927	4924.8	57.8161	4924.8	61.0634	4924.8	68.8106	4924.8	67.8505	4924.8	64.0043	4924.8	65.5267	4924.8	70.4118	4924.8	67.875	4924.8	68.487	4924.8	68.6538	4924.8	66.5394
5097.66	83.5252	5097.66	83.114	5097.66	83.1202	5097.66	81.9911	5097.66	82.0826	5097.66	81.731	5097.66	81.5458	5097.66	76.2866	5097.66	78.3665	5097.66	79.2154	5097.66	77.1402	5097.66	72.5511	5097.66	72.1222	5097.66	70.9851	5097.66	65.4323	5097.66	67.0097	5097.66	51.7635	5097.66	71.9565	5097.66	73.0731	5097.66	71.0744	5097.66	71.4828	5097.66	68.2119	5097.66	58.878	5097.66	60.7744	5097.66	57.2352	5097.66	66.024	5097.66	69.0631	5097.66	70.5461	5097.66	68.0128	5097.66	66.8959	5097.66	63.7404	5097.66	70.3613	5097.66	66.1654	5097.66	70.279	5097.66	70.2136	5097.66	63.342
5277.83	82.1696	5277.83	82.8869	5277.83	83.5154	5277.83	79.9424	5277.83	80.7201	5277.83	81.3614	5277.83	80.7337	5277.83	75.0215	5277.83	76.214	5277.83	78.5889	5277.83	75.2982	5277.83	67.5871	5277.83	64.6573	5277.83	75.2505	5277.83	72.0166	5277.83	67.4063	5277.83	62.2209	5277.83	70.1814	5277.83	72.9332	5277.83	73.0051	5277.83	73.5791	5277.83	66.3811	5277.83	56.4074	5277.83	69.2393	5277.83	60.7603	5277.83	67.1235	5277.83	70.2998	5277.83	71.7483	5277.83	67.0587	5277.83	68.367	5277.83	56.9804	5277.83	71.7084	5277.83	69.0879	5277.83	70.8564	5277.83	73.2502	5277.83	59.5348
5463.87	81.7333	5463.87	82.9155	5463.87	83.0165	5463.87	78.6631	5463.87	79.6619	5463.87	79.7698	5463.87	79.1492	5463.87	75.9619	5463.87	76.4935	5463.87	75.9123	5463.87	74.2503	5463.87	75.8304	5463.87	69.4396	5463.87	76.6342	5463.87	75.4705	5463.87	68.9539	5463.87	61.3985	5463.87	69.0425	5463.87	70.3232	5463.87	75.0439	5463.87	72.6601	5463.87	66.7901	5463.87	55.8817	5463.87	71.259	5463.87	57.8993	5463.87	68.7936	5463.87	69.8585	5463.87	71.1704	5463.87	67.8842	5463.87	67.8069	5463.87	65.9554	5463.87	72.618	5463.87	72.9167	5463.87	70.4246	5463.87	71.9943	5463.87	68.7243
5657.23	81.4429	5657.23	81.5278	5657.23	81.7544	5657.23	79.342	5657.23	79.8031	5657.23	77.9252	5657.23	78.2186	5657.23	78.1078	5657.23	78.311	5657.23	73.2685	5657.23	71.8237	5657.23	79.02	5657.23	74.2346	5657.23	74.8505	5657.23	74.4596	5657.23	71.5514	5657.23	56.537	5657.23	70.6913	5657.23	68.3915	5657.23	72.224	5657.23	70.8504	5657.23	63.7424	5657.23	41.0661	5657.23	68.887	5657.23	51.181	5657.23	66.6537	5657.23	67.595	5657.23	71.4283	5657.23	69.2418	5657.23	64.1386	5657.23	69.1709	5657.23	73.2583	5657.23	74.2288	5657.23	70.4869	5657.23	70.4442	5657.23	69.8934
5856.45	82.922	5856.45	82.3025	5856.45	82.2058	5856.45	80.4609	5856.45	80.9574	5856.45	79.6854	5856.45	79.0866	5856.45	78.5257	5856.45	78.9765	5856.45	75.2075	5856.45	71.2796	5856.45	78.5177	5856.45	75.0492	5856.45	67.4286	5856.45	70.116	5856.45	71.9031	5856.45	61.8877	5856.45	72.0384	5856.45	68.9024	5856.45	68.1269	5856.45	71.5006	5856.45	62.2349	5856.45	61.1693	5856.45	66.0586	5856.45	65.9433	5856.45	54.275	5856.45	60.3255	5856.45	70.9908	5856.45	69.3357	5856.45	57.2642	5856.45	68.8685	5856.45	73.3618	5856.45	74.5621	5856.45	70.4557	5856.45	68.1802	5856.45	68.1545
6062.99	85.2433	6062.99	84.18	6062.99	83.479	6062.99	81.3279	6062.99	81.9298	6062.99	80.3885	6062.99	79.1731	6062.99	76.6429	6062.99	78.1069	6062.99	75.7148	6062.99	72.7867	6062.99	76.1849	6062.99	73.2129	6062.99	68.2866	6062.99	62.6808	6062.99	72.852	6062.99	65.5686	6062.99	69.0642	6062.99	68.8751	6062.99	69.4871	6062.99	72.4317	6062.99	68.3033	6062.99	66.7682	6062.99	64.7474	6062.99	69.5628	6062.99	66.3013	6062.99	53.4952	6062.99	66.8166	6062.99	67.0861	6062.99	64.549	6062.99	65.1373	6062.99	72.6039	6062.99	72.9539	6062.99	69.0205	6062.99	68.6793	6062.99	72.2527
6276.86	86.1367	6276.86	84.6609	6276.86	84.3883	6276.86	83.0233	6276.86	83.6601	6276.86	80.0383	6276.86	79.518	6276.86	75.4672	6276.86	77.7231	6276.86	75.7243	6276.86	74.2411	6276.86	69.5784	6276.86	60.7032	6276.86	75.0734	6276.86	72.5932	6276.86	69.4586	6276.86	63.8237	6276.86	72.9721	6276.86	71.7105	6276.86	70.5095	6276.86	71.1832	6276.86	70.4931	6276.86	67.0754	6276.86	65.0469	6276.86	67.7087	6276.86	67.4426	6276.86	67.884	6276.86	62.7835	6276.86	59.2061	6276.86	70.9747	6276.86	69.2715	6276.86	68.7526	6276.86	68.2785	6276.86	60.3205	6276.86	62.0877	6276.86	72.7366
6498.05	85.0041	6498.05	84.933	6498.05	85.3975	6498.05	82.8428	6498.05	83.0295	6498.05	79.5783	6498.05	80.3075	6498.05	76.1467	6498.05	77.9959	6498.05	74.4589	6498.05	72.5689	6498.05	74.0314	6498.05	67.2572	6498.05	76.2845	6498.05	74.1801	6498.05	64.5083	6498.05	57.7364	6498.05	75.1641	6498.05	70.9298	6498.05	72.1407	6498.05	65.7631	6498.05	69.5054	6498.05	62.9182	6498.05	59.1995	6498.05	60.8863	6498.05	66.2178	6498.05	68.401	6498.05	70.354	6498.05	64.3361	6498.05	72.1075	6498.05	67.257	6498.05	65.61	6498.05	55.1421	6498.05	58.747	6498.05	51.5994	6498.05	72.0381
6726.56	84.4125	6726.56	84.1261	6726.56	84.3915	6726.56	81.9674	6726.56	82.3531	6726.56	80.1805	6726.56	80.1998	6726.56	75.9027	6726.56	77.6443	6726.56	73.4352	6726.56	71.7331	6726.56	76.2681	6726.56	70.2484	6726.56	73.655	6726.56	72.9736	6726.56	70.6283	6726.56	64.535	6726.56	74.2485	6726.56	68.3068	6726.56	66.5619	6726.56	67.8151	6726.56	68.6537	6726.56	47.7772	6726.56	48.8913	6726.56	51.6133	6726.56	59.3916	6726.56	65.5699	6726.56	72.319	6726.56	69.155	6726.56	70.3501	6726.56	60.5987	6726.56	61.6941	6726.56	55.3745	6726.56	60.7548	6726.56	58.598	6726.56	66.0908
6963.87	84.7915	6963.87	83.7626	6963.87	83.3965	6963.87	81.6527	6963.87	81.9063	6963.87	79.2199	6963.87	78.8356	6963.87	75.5612	6963.87	76.1534	6963.87	72.3479	6963.87	72.8999	6963.87	76.0234	6963.87	71.2605	6963.87	71.8161	6963.87	69.1317	6963.87	73.3237	6963.87	67.533	6963.87	73.7662	6963.87	66.6974	6963.87	53.1025	6963.87	67.5966	6963.87	69.4075	6963.87	63.7582	6963.87	65.2829	6963.87	54.3378	6963.87	62.5003	6963.87	57.5202	6963.87	70.4608	6963.87	70.7758	6963.87	62.124	6963.87	56.4916	6963.87	59.8247	6963.87	67.4577	6963.87	54.3803	6963.87	63.023	6963.87	62.7631
7209.96	85.5027	7209.96	84.697	7209.96	84.7239	7209.96	81.4754	7209.96	81.5899	7209.96	77.6955	7209.96	78.3304	7209.96	77.0674	7209.96	75.8027	7209.96	73.2665	7209.96	72.795	7209.96	73.1445	7209.96	70.6959	7209.96	75.1057	7209.96	68.7219	7209.96	69.0711	7209.96	68.4574	7209.96	72.1917	7209.96	70.769	7209.96	66.7584	7209.96	70.8989	7209.96	72.7356	7209.96	66.7606	7209.96	64.3463	7209.96	60.4812	7209.96	69.1193	7209.96	62.8235	7209.96	66.4802	7209.96	69.0451	7209.96	63.5465	7209.96	53.1603	7209.96	63.8167	7209.96	69.0149	7209.96	53.9696	7209.96	57.5429	7209.96	67.3299
7464.84	85.9514	7464.84	85.2224	7464.84	85.4036	7464.84	83.386	7464.84	83.503	7464.84	79.7102	7464.84	79.4027	7464.84	76.5649	7464.84	75.741	7464.84	73.7445	7464.84	75.0543	7464.84	75.8794	7464.84	69.8479	7464.84	74.9746	7464.84	72.3667	7464.84	64.5968	7464.84	61.6972	7464.84	73.9947	7464.84	70.182	7464.84	67.8361	7464.84	63.5567	7464.84	68.215	7464.84	54.1486	7464.84	64.8985	7464.84	52.4956	7464.84	68.7627	7464.84	63.1554	7464.84	59.2086	7464.84	63.3464	7464.84	53.3324	7464.84	41.0535	7464.84	59.9496	7464.84	66.3386	7464.84	64.8314	7464.84	62.5468	7464.84	68.4848
7727.05	85.2799	7727.05	85.2951	7727.05	85.1452	7727.05	84.1555	7727.05	84.1802	7727.05	80.1494	7727.05	79.9205	7727.05	76.5192	7727.05	76.5399	7727.05	73.6371	7727.05	75.4089	7727.05	76.8244	7727.05	68.6377	7727.05	71.6049	7727.05	69.9592	7727.05	68.1922	7727.05	59.568	7727.05	70.1123	7727.05	68.9695	7727.05	62.586	7727.05	65.5554	7727.05	66.0304	7727.05	65.1829	7727.05	65.3312	7727.05	63.3441	7727.05	62.7691	7727.05	59.9081	7727.05	55.7283	7727.05	55.5138	7727.05	54.7789	7727.05	62.6533	7727.05	49.4574	7727.05	52.6406	7727.05	65.9665	7727.05	65.1534	7727.05	66.3529
7999.51	84.9118	7999.51	84.2782	7999.51	84.1355	7999.51	83.6143	7999.51	83.6961	7999.51	79.2552	7999.51	80.3829	7999.51	78.513	7999.51	78.2539	7999.51	72.6539	7999.51	76.3548	7999.51	73.7115	7999.51	69.7521	7999.51	73.0596	7999.51	62.2429	7999.51	65.1442	7999.51	66.3039	7999.51	66.9891	7999.51	64.0782	7999.51	63.942	7999.51	66.9538	7999.51	69.3245	7999.51	67.4145	7999.51	66.1543	7999.51	64.3781	7999.51	57.7427	7999.51	60.3266	7999.51	64.1931	7999.51	61.9891	7999.51	64.5382	7999.51	67.5637	7999.51	66.0198	7999.51	60.0026	7999.51	67.2266	7999.51	68.2486	7999.51	62.248
8282.23	84.3927	8282.23	83.9954	8282.23	84.2124	8282.23	83.4734	8282.23	83.3959	8282.23	81.0713	8282.23	81.0404	8282.23	77.7615	8282.23	78.827	8282.23	73.5152	8282.23	75.5975	8282.23	72.4055	8282.23	69.9945	8282.23	72.7561	8282.23	65.5077	8282.23	63.1204	8282.23	64.9263	8282.23	73.7141	8282.23	69.3731	8282.23	70.2815	8282.23	66.3731	8282.23	70.0207	8282.23	62.401	8282.23	62.0853	8282.23	51.7236	8282.23	63.3124	8282.23	61.8889	8282.23	59.9536	8282.23	56.8412	8282.23	65.3463	8282.23	66.7341	8282.23	68.3427	8282.23	66.873	8282.23	64.8632	8282.23	68.4381	8282.23	67.1982
8573.73	84.0737	8573.73	84.1129	8573.73	84.1876	8573.73	83.8029	8573.73	83.8528	8573.73	81.339	8573.73	81.1575	8573.73	77.5124	8573.73	78.5316	8573.73	72.1913	8573.73	75.2299	8573.73	73.4285	8573.73	66.4003	8573.73	69.4195	8573.73	67.5507	8573.73	69.1624	8573.73	60.2329	8573.73	72.2887	8573.73	65.8153	8573.73	63.3239	8573.73	68.5994	8573.73	61.5897	8573.73	63.7596	8573.73	64.8872	8573.73	57.6311	8573.73	58.0834	8573.73	59.9835	8573.73	54.2199	8573.73	49.3586	8573.73	59.5113	8573.73	60.6507	8573.73	67.7644	8573.73	69.0953	8573.73	64.177	8573.73	65.1696	8573.73	66.8393
8876.95	84.4341	8876.95	83.7697	8876.95	83.7298	8876.95	82.8915	8876.95	82.9192	8876.95	79.4832	8876.95	80.6666	8876.95	78.7183	8876.95	78.4808	8876.95	72.7212	8876.95	75.3971	8876.95	71.5342	8876.95	62.6308	8876.95	70.0491	8876.95	67.4701	8876.95	66.5209	8876.95	57.1048	8876.95	65.9511	8876.95	65.045	8876.95	56.6525	8876.95	68.0066	8876.95	66.1521	8876.95	67.901	8876.95	60.0813	8876.95	63.0448	8876.95	61.2681	8876.95	60.179	8876.95	64.0692	8876.95	60.925	8876.95	59.6616	8876.95	46.1185	8876.95	62.2866	8876.95	66.3521	8876.95	65.3097	8876.95	63.5814	8876.95	62.2502
9188.96	83.6513	9188.96	83.0783	9188.96	83.6256	9188.96	82.3925	9188.96	82.41	9188.96	80.3499	9188.96	81.1487	9188.96	78.003	9188.96	77.6937	9188.96	72.3588	9188.96	75.6084	9188.96	72.2469	9188.96	65.3111	9188.96	69.765	9188.96	67.9747	9188.96	68.2272	9188.96	50.4356	9188.96	68.6958	9188.96	69.471	9188.96	63.8168	9188.96	66.7417	9188.96	64.1328	9188.96	63.209	9188.96	58.5403	9188.96	53.7454	9188.96	56.8567	9188.96	59.5782	9188.96	68.2024	9188.96	45.7141	9188.96	66.9991	9188.96	54.0553	9188.96	62.4577	9188.96	55.3059	9188.96	64.0045	9188.96	59.948	9188.96	52.8564
9514.16	82.5388	9514.16	82.7374	9514.16	83.3713	9514.16	82.5279	9514.16	82.2867	9514.16	79.8487	9514.16	81.654	9514.16	77.7197	9514.16	78.5317	9514.16	71.8751	9514.16	75.3101	9514.16	70.4989	9514.16	64.7897	9514.16	69.0346	9514.16	67.9438	9514.16	70.0863	9514.16	59.6646	9514.16	66.0053	9514.16	68.0982	9514.16	60.712	9514.16	62.8736	9514.16	63.1057	9514.16	51.8856	9514.16	59.8879	9514.16	57.7282	9514.16	56.5062	9514.16	55.175	9514.16	66.273	9514.16	52.9802	9514.16	63.9545	9514.16	56.6898	9514.16	60.8561	9514.16	54.5005	9514.16	65.1967	9514.16	58.7852	9514.16	63.4494
9849.61	83.2411	9849.61	82.3709	9849.61	82.7435	9849.61	82.2274	9849.61	81.8466	9849.61	79.776	9849.61	81.0368	9849.61	78.4844	9849.61	79.7638	9849.61	73.7643	9849.61	76.0127	9849.61	69.0659	9849.61	63.8271	9849.61	69.8663	9849.61	66.3912	9849.61	66.1692	9849.61	49.4963	9849.61	68.0335	9849.61	66.2259	9849.61	54.4778	9849.61	65.916	9849.61	64.7238	9849.61	62.5684	9849.61	61.1757	9849.61	62.1562	9849.61	60.978	9849.61	48.6339	9849.61	62.512	9849.61	65.4841	9849.61	60.4692	9849.61	57.0031	9849.61	61.6792	9849.61	62.5884	9849.61	56.1242	9849.61	55.9598	9849.61	67.1352
10196.8	83.6047	10196.8	82.6092	10196.8	82.8203	10196.8	81.863	10196.8	81.7301	10196.8	80.6051	10196.8	81.3583	10196.8	78.6078	10196.8	79.6421	10196.8	73.5126	10196.8	75.6924	10196.8	69.4724	10196.8	68.5724	10196.8	67.4708	10196.8	66.6675	10196.8	63.5795	10196.8	57.8273	10196.8	61.4158	10196.8	66.9306	10196.8	61.9712	10196.8	68.6492	10196.8	58.534	10196.8	60.9155	10196.8	58.2204	10196.8	53.38	10196.8	59.5772	10196.8	55.4889	10196.8	54.9594	10196.8	61.4228	10196.8	61.9993	10196.8	65.4152	10196.8	62.5253	10196.8	64.0377	10196.8	58.7716	10196.8	55.2762	10196.8	65.7849
10555.7	83.7539	10555.7	83.1293	10555.7	82.9749	10555.7	82.1363	10555.7	82.2355	10555.7	79.502	10555.7	80.8817	10555.7	78.6012	10555.7	78.7863	10555.7	73.6086	10555.7	75.4029	10555.7	70.7938	10555.7	68.4409	10555.7	62.8203	10555.7	65.7287	10555.7	61.4471	10555.7	62.0289	10555.7	59.0203	10555.7	64.4812	10555.7	61.5812	10555.7	60.7909	10555.7	51.0499	10555.7	56.7923	10555.7	51.3062	10555.7	53.7923	10555.7	52.9317	10555.7	59.122	10555.7	52.5475	10555.7	42.9301	10555.7	54.2272	10555.7	64.0404	10555.7	63.2198	10555.7	57.1037	10555.7	59.2638	10555.7	60.511	10555.7	55.2233
10927.7	83.3778	10927.7	82.854	10927.7	83.2282	10927.7	81.8303	10927.7	82.1674	10927.7	79.4218	10927.7	80.6878	10927.7	77.7765	10927.7	77.6399	10927.7	73.6605	10927.7	75.1658	10927.7	69.397	10927.7	66.0865	10927.7	65.1903	10927.7	66.4149	10927.7	61.0681	10927.7	58.8814	10927.7	61.6329	10927.7	65.5129	10927.7	60.4739	10927.7	56.8467	10927.7	51.351	10927.7	61.5512	10927.7	54.1033	10927.7	57.391	10927.7	47.0858	10927.7	50.8686	10927.7	61.273	10927.7	61.962	10927.7	58.4958	10927.7	56.5083	10927.7	64.3616	10927.7	50.7289	10927.7	50.2812	10927.7	59.0499	10927.7	59.5237
11313	83.8249	11313	83.085	11313	83.554	11313	82.1201	11313	82.366	11313	79.903	11313	80.9354	11313	78.4339	11313	78.3634	11313	73.8269	11313	75.7417	11313	69.3186	11313	65.8002	11313	60.6259	11313	63.3704	11313	57.225	11313	61.9965	11313	55.4943	11313	61.9202	11313	62.0305	11313	54.6038	11313	44.7382	11313	61.0797	11313	45.5595	11313	47.4645	11313	48.3559	11313	51.3453	11313	60.013	11313	59.7383	11313	60.7196	11313	60.3358	11313	63.2763	11313	60.918	11313	55.5553	11313	60.3619	11313	64.8963
11712.9	84.6214	11712.9	83.3299	11712.9	83.8253	11712.9	82.1826	11712.9	82.2484	11712.9	80.2654	11712.9	80.8793	11712.9	77.91	11712.9	78.4868	11712.9	73.8678	11712.9	75.7334	11712.9	67.8103	11712.9	64.5513	11712.9	64.5664	11712.9	61.7733	11712.9	63.4697	11712.9	59.2331	11712.9	60.6965	11712.9	64.6123	11712.9	52.4042	11712.9	60.4668	11712.9	54.5914	11712.9	54.2894	11712.9	57.4278	11712.9	57.1535	11712.9	59.7038	11712.9	46.3974	11712.9	54.1282	11712.9	47.0963	11712.9	61.063	11712.9	65.9424	11712.9	61.5891	11712.9	67.2855	11712.9	59.8235	11712.9	61.5153	11712.9	63.749
12126	84.4988	12126	83.5384	12126	84.0198	12126	82.1891	12126	82.4742	12126	79.737	12126	80.4751	12126	77.2065	12126	78.5191	12126	72.2631	12126	75.7491	12126	67.0029	12126	65.0016	12126	58.8664	12126	63.5427	12126	61.6903	12126	49.9571	12126	55.9876	12126	62.8057	12126	59.1302	12126	61.0487	12126	54.7615	12126	60.0782	12126	49.7387	12126	50.0789	12126	59.8079	12126	53.9855	12126	53.4921	12126	61.5909	12126	57.3977	12126	64.961	12126	60.9361	12126	65.8386	12126	61.4972	12126	59.7771	12126	62.6088
12553.7	83.5277	12553.7	82.9979	12553.7	83.4559	12553.7	82.1543	12553.7	82.3358	12553.7	79.3916	12553.7	80.2775	12553.7	75.9677	12553.7	77.2214	12553.7	71.7313	12553.7	74.9382	12553.7	67.2301	12553.7	65.0262	12553.7	57.4972	12553.7	63.3592	12553.7	61.4137	12553.7	58.4884	12553.7	55.8736	12553.7	59.8482	12553.7	50.5913	12553.7	54.4159	12553.7	55.0608	12553.7	54.0368	12553.7	53.5443	12553.7	52.2055	12553.7	53.6285	12553.7	47.9359	12553.7	52.0302	12553.7	61.2879	12553.7	56.7491	12553.7	62.4776	12553.7	59.0049	12553.7	57.7393	12553.7	62.5675	12553.7	57.8395	12553.7	60.1121
12996.1	83.5654	12996.1	82.3942	12996.1	82.8503	12996.1	81.2345	12996.1	81.6983	12996.1	78.8374	12996.1	79.8129	12996.1	74.5445	12996.1	76.1696	12996.1	69.0603	12996.1	73.9783	12996.1	62.0291	12996.1	62.7765	12996.1	53.8746	12996.1	62.5709	12996.1	56.4514	12996.1	61.2807	12996.1	49.9257	12996.1	57.7162	12996.1	52.4432	12996.1	58.6369	12996.1	49.8008	12996.1	47.7025	12996.1	49.3326	12996.1	39.5169	12996.1	50.1293	12996.1	52.3264	12996.1	55.5218	12996.1	55.5489	12996.1	61.8057	12996.1	58.7492	12996.1	59.7446	12996.1	44.6325	12996.1	63.1456	12996.1	60.2892	12996.1	60.1375
13454.6	83.6966	13454.6	82.883	13454.6	83.0366	13454.6	81.0975	13454.6	81.5165	13454.6	77.7007	13454.6	79.2896	13454.6	73.5931	13454.6	76.3037	13454.6	68.6889	13454.6	72.1349	13454.6	60.8845	13454.6	61.1523	13454.6	50.257	13454.6	60.2224	13454.6	51.0034	13454.6	53.3281	13454.6	50.8742	13454.6	55.8383	13454.6	47.7543	13454.6	56.133	13454.6	50.5298	13454.6	51.4415	13454.6	55.7209	13454.6	54.4723	13454.6	50.3675	13454.6	56.2472	13454.6	52.5833	13454.6	56.5928	13454.6	56.9147	13454.6	55.4497	13454.6	62.3103	13454.6	57.5053	13454.6	60.0263	13454.6	60.1155	13454.6	58.6631
13929.2	83.3252	13929.2	82.8832	13929.2	82.923	13929.2	81.2728	13929.2	81.4613	13929.2	76.5612	13929.2	78.0232	13929.2	72.1337	13929.2	74.3827	13929.2	65.8737	13929.2	69.6783	13929.2	56.6469	13929.2	61.5486	13929.2	36.6212	13929.2	57.8289	13929.2	50.8064	13929.2	54.2892	13929.2	49.0349	13929.2	54.553	13929.2	48.7205	13929.2	48.6462	13929.2	40.8595	13929.2	50.6677	13929.2	49.8827	13929.2	48.7502	13929.2	38.7657	13929.2	45.197	13929.2	51.2991	13929.2	59.7566	13929.2	56.1633	13929.2	59.0904	13929.2	62.1754	13929.2	60.8982	13929.2	53.9812	13929.2	59.603	13929.2	56.2107
14419.9	83.5406	14419.9	82.7959	14419.9	82.5714	14419.9	80.9585	14419.9	80.994	14419.9	77.2283	14419.9	78.158	14419.9	72.1319	14419.9	73.9217	14419.9	64.4522	14419.9	68.2093	14419.9	55.0026	14419.9	59.292	14419.9	47.1733	14419.9	52.0637	14419.9	49.9161	14419.9	49.3875	14419.9	47.4734	14419.9	50.072	14419.9	52.2943	14419.9	50.8225	14419.9	40.2696	14419.9	45.9865	14419.9	48.591	14419.9	43.3632	14419.9	49.1466	14419.9	51.0046	14419.9	54.7323	14419.9	56.8813	14419.9	59.416	14419.9	59.7799	14419.9	63.2934	14419.9	63.2635	14419.9	47.7925	14419.9	54.7478	14419.9	61.0374
14928.2	83.6805	14928.2	82.9116	14928.2	82.6801	14928.2	80.6918	14928.2	80.98	14928.2	77.012	14928.2	77.1349	14928.2	71.9624	14928.2	72.333	14928.2	62.4836	14928.2	67.734	14928.2	50.4717	14928.2	57.7365	14928.2	48.5803	14928.2	52.5131	14928.2	50.3124	14928.2	50.9354	14928.2	48.2456	14928.2	48.8718	14928.2	49.1884	14928.2	49.5011	14928.2	52.3528	14928.2	37.7978	14928.2	57.153	14928.2	47.7788	14928.2	50.8215	14928.2	53.2969	14928.2	57.425	14928.2	52.2229	14928.2	59.7739	14928.2	50.2861	14928.2	63.0793	14928.2	60.4648	14928.2	57.7391	14928.2	50.4573	14928.2	64.0188
15455.6	82.2591	15455.6	81.4086	15455.6	81.6536	15455.6	79.3186	15455.6	80.2337	15455.6	73.9697	15455.6	75.8058	15455.6	68.5704	15455.6	71.2186	15455.6	60.6163	15455.6	67.2725	15455.6	48.0477	15455.6	57.3826	15455.6	49.7257	15455.6	51.6357	15455.6	53.098	15455.6	45.2245	15455.6	47.8579	15455.6	47.0084	15455.6	50.7005	15455.6	43.6722	15455.6	44.9632	15455.6	42.2595	15455.6	57.5604	15455.6	50.4695	15455.6	54.7669	15455.6	53.6659	15455.6	55.0149	15455.6	50.2141	15455.6	51.3552	15455.6	57.4815	15455.6	57.5629	15455.6	54.8803	15455.6	41.3036	15455.6	56.3238	15455.6	57.111
16000.5	82.2466	16000.5	80.5427	16000.5	81.3745	16000.5	78.3032	16000.5	79.354	16000.5	73.2195	16000.5	75.83	16000.5	66.5281	16000.5	70.4626	16000.5	57.7676	16000.5	65.0406	16000.5	44.2041	16000.5	54.7068	16000.5	51.9085	16000.5	49.9098	16000.5	51.0206	16000.5	46.5277	16000.5	47.9659	16000.5	40.3618	16000.5	49.1641	16000.5	40.1591	16000.5	46.5887	16000.5	45.8961	16000.5	49.9331	16000.5	40.9112	16000.5	53.1593	16000.5	44.3125	16000.5	55.7491	16000.5	54.164	16000.5	50.4675	16000.5	51.0685	16000.5	57.6169	16000.5	53.8082	16000.5	50.6213	16000.5	50.7323	16000.5	58.534
16564.5	81.9489	16564.5	80.9997	16564.5	81.6014	16564.5	77.6569	16564.5	78.7421	16564.5	71.9306	16564.5	73.9887	16564.5	65.0071	16564.5	68.5626	16564.5	28.6561	16564.5	60.1999	16564.5	50.5854	16564.5	50.1514	16564.5	46.1201	16564.5	36.878	16564.5	52.9014	16564.5	33.997	16564.5	50.4619	16564.5	42.9983	16564.5	50.6345	16564.5	40.5853	16564.5	50.5764	16564.5	45.6222	16564.5	38.1964	16564.5	48.0508	16564.5	40.7041	16564.5	47.1401	16564.5	52.0484	16564.5	47.4239	16564.5	53.1935	16564.5	44.7245	16564.5	58.2624	16564.5	55.7341	16564.5	51.1035	16564.5	42.3681	16564.5	60.1152
17148.9	80.8924	17148.9	79.8588	17148.9	80.2158	17148.9	76.6065	17148.9	77.213	17148.9	70.0236	17148.9	72.3893	17148.9	63.6298	17148.9	65.2314	17148.9	48.6918	17148.9	53.9176	17148.9	52.9448	17148.9	39.5609	17148.9	40.3909	17148.9	32.8428	17148.9	49.0679	17148.9	38.914	17148.9	48.6854	17148.9	39.9539	17148.9	44.0407	17148.9	35.1219	17148.9	48.0171	17148.9	36.9593	17148.9	54.4809	17148.9	44.6889	17148.9	49.668	17148.9	41.3115	17148.9	50.8779	17148.9	44.7787	17148.9	48.6861	17148.9	45.1432	17148.9	58.5107	17148.9	58.5434	17148.9	53.218	17148.9	45.8265	17148.9	60.5827
17752.4	80.7565	17752.4	79.0787	17752.4	79.8292	17752.4	75.2079	17752.4	76.4373	17752.4	67.4417	17752.4	71.7563	17752.4	60.2699	17752.4	62.988	17752.4	49.5248	17752.4	45.038	17752.4	52.6589	17752.4	45.6925	17752.4	47.4583	17752.4	38.3808	17752.4	45.3111	17752.4	41.8738	17752.4	48.439	17752.4	41.7473	17752.4	45.1469	17752.4	38.4193	17752.4	52.1627	17752.4	47.156	17752.4	56.3332	17752.4	43.7124	17752.4	43.158	17752.4	53.3049	17752.4	39.161	17752.4	49.7265	17752.4	42.4407	17752.4	35.8782	17752.4	56.0844	17752.4	54.1788	17752.4	51.723	17752.4	51.0577	17752.4	52.8686
18379.4	79.623	18379.4	77.9901	18379.4	78.7695	18379.4	74.0587	18379.4	75.6977	18379.4	66.1117	18379.4	70.1941	18379.4	51.549	18379.4	58.1336	18379.4	55.8181	18379.4	31.0721	18379.4	54.6502	18379.4	44.272	18379.4	20.2462	18379.4	32.3411	18379.4	48.077	18379.4	37.7703	18379.4	48.2103	18379.4	38.3339	18379.4	47.9178	18379.4	39.8806	18379.4	46.9875	18379.4	48.4683	18379.4	54.5779	18379.4	43.681	18379.4	49.2803	18379.4	52.5347	18379.4	45.8573	18379.4	48.6778	18379.4	48.1224	18379.4	33.6043	18379.4	54.1518	18379.4	52.2012	18379.4	40.6021	18379.4	46.8732	18379.4	48.5104
19026.9	78.8487	19026.9	76.801	19026.9	77.5981	19026.9	72.1863	19026.9	73.7053	19026.9	63.8731	19026.9	68.2581	19026.9	51.8812	19026.9	53.0163	19026.9	55.5233	19026.9	47.4005	19026.9	51.6907	19026.9	40.4942	19026.9	36.384	19026.9	39.6679	19026.9	49.8714	19026.9	35.9561	19026.9	32.6852	19026.9	32.0207	19026.9	45.2958	19026.9	42.3512	19026.9	40.3752	19026.9	41.9828	19026.9	49.0783	19026.9	39.6193	19026.9	47.4069	19026.9	49.2409	19026.9	46.1525	19026.9	45.2874	19026.9	44.4504	19026.9	43.4125	19026.9	50.5006	19026.9	49.5028	19026.9	51.4038	19026.9	48.166	19026.9	45.3344
19697.8	77.0548	19697.8	76.0542	19697.8	76.7976	19697.8	70.5747	19697.8	72.0202	19697.8	57.8318	19697.8	64.1401	19697.8	57.3121	19697.8	43.4054	19697.8	58.2959	19697.8	52.4632	19697.8	50.087	19697.8	39.9086	19697.8	41.9395	19697.8	44.2173	19697.8	41.8845	19697.8	36.9779	19697.8	46.1376	19697.8	42.9522	19697.8	39.3945	19697.8	32.462	19697.8	38.1996	19697.8	38.4177	19697.8	46.4076	19697.8	47.135	19697.8	47.0508	19697.8	52.9059	19697.8	48.2941	19697.8	38.7203	19697.8	51.7441	19697.8	37.4342	19697.8	52.5317	19697.8	50.3672	19697.8	48.7781	19697.8	49.0315	19697.8	47.7451
19999.5	76.3609	19999.5	74.8075	19999.5	75.3939	19999.5	69.6989	19999.5	71.4956	19999.5	56.1769	19999.5	61.6036	19999.5	58.1452	19999.5	41.9594	19999.5	56.3102	19999.5	47.8001	19999.5	51.441	19999.5	46.3476	19999.5	37.3323	19999.5	45.3136	19999.5	45.754	19999.5	40.5071	19999.5	45.0103	19999.5	43.6645	19999.5	45.6711	19999.5	35.0312	19999.5	41.244	19999.5	41.3353	19999.5	48.6742	19999.5	42.1361	19999.5	45.2474	19999.5	47.9405	19999.5	52.478	19999.5	39.33	19999.5	54.2742	19999.5	33.1964	19999.5	52.8263	19999.5	44.1209	19999.5	48.2573	19999.5	50.2071	19999.5	39.2631
