Freq[Hz]     dBSPL  Phase[Deg]
5.00000     40.911   100.582
5.07273     40.748   100.701
5.14651     40.585   100.821
5.22137     40.422   100.940
5.29732     40.255   101.063
5.37437     40.085   101.188
5.45254     39.914   101.313
5.53185     39.741   101.440
5.61231     39.564   101.572
5.69394     39.386   101.702
5.77676     39.207   101.835
5.86079     39.022   101.972
5.94604     38.837   102.109
6.03252     38.663   102.248
6.12027     38.507   102.390
6.20929     38.350   102.533
6.29961     38.191   102.679
6.39124     38.029   102.827
6.48420     37.866   102.976
6.57851     37.699   103.129
6.67420     37.531   103.283
6.77128     37.362   103.438
6.86977     37.188   103.599
6.96969     37.014   103.758
7.07107     36.836   103.923
7.17392     36.657   104.089
7.27827     36.476   104.256
7.38413     36.290   104.428
7.49154     36.105   104.600
7.60050     35.955   104.777
7.71105     35.808   104.954
7.82321     35.628   105.135
7.93701     35.431   105.318
8.05245     35.253   105.504
8.16958     35.097   105.694
8.28841     34.940   105.885
8.40896     34.780   106.080
8.53128     34.606   106.276
8.65537     34.392   106.477
8.78126     34.189   106.679
8.90899     34.020   106.886
9.03857     33.850   107.094
9.17004     33.677   107.307
9.30342     33.502   107.522
9.43874     33.325   107.740
9.57603     33.176   107.961
9.71532     33.049   108.185
9.85663     32.878   108.414
10.0000     32.692   108.643
10.1455     32.560   109.069
10.2930     32.306   108.140
10.4427     31.751   103.900
10.5946     30.998   100.619
10.7487     30.124    97.925
10.9051     28.981    98.003
11.0637     27.927   100.261
11.2246     27.013   105.760
11.3879     26.746   111.545
11.5535     26.837   117.101
11.7216     27.426   122.052
11.8921     28.140   121.189
12.0650     28.755   118.008
12.2405     29.160   112.913
12.4186     29.235   106.073
12.5992     29.053    98.281
12.7825     28.567    89.674
12.9684     27.585    80.531
13.1570     26.021    71.702
13.3484     23.847    62.788
13.5426     20.578    60.672
13.7395     15.052    83.469
13.9394     12.470   112.108
14.1421     16.356   138.927
14.3478     21.746   153.214
14.5565     25.363   151.726
14.7683     27.741   142.349
14.9831     29.532   132.533
15.2010     30.624   122.586
15.4221     31.395   112.770
15.6464     31.686   103.393
15.8740     31.563    94.534
16.1049     30.976    86.791
16.3392     29.630    81.870
16.5768     27.310    81.661
16.8179     24.798    92.720
17.0626     24.115   123.708
17.3107     25.900   152.867
17.5625     29.712   165.779
17.8180     32.694   166.103
18.0771     34.774   162.827
18.3401     36.225   158.909
18.6068     37.105   155.443
18.8775     37.689   153.310
19.1521     38.101   152.726
19.4306     38.420   153.808
19.7133     38.830   156.387
20.0000     39.473   159.187
20.2909     40.273   161.360
20.5860     41.006   162.710
20.8855     41.779   163.241
21.1893     42.478   163.271
21.4975     43.094   163.190
21.8102     43.696   163.069
22.1274     44.212   162.769
22.4492     44.878   162.107
22.7758     45.561   160.890
23.1071     46.261   159.045
23.4432     46.710   156.790
23.7841     47.449   154.337
24.1301     48.008   151.974
24.4811     48.476   149.842
24.8372     48.857   148.066
25.1984     49.337   146.595
25.5649     49.903   145.382
25.9368     50.498   144.316
26.3141     51.202   143.276
26.6968     51.724   142.175
27.0851     52.336   140.985
27.4791     52.966   139.762
27.8788     53.605   138.619
28.2843     54.154   137.606
28.6957     54.734   136.703
29.1131     55.380   135.771
29.5365     55.958   134.687
29.9661     56.559   133.385
30.4020     57.082   131.929
30.8442     57.612   130.436
31.2929     58.151   128.946
31.7480     58.697   127.392
32.2098     59.351   125.645
32.6783     59.913   123.654
33.1536     60.484   121.556
33.6359     60.962   119.499
34.1251     61.649   117.546
34.6215     62.245   115.618
35.1250     62.849   113.603
35.6359     63.408   111.481
36.1543     63.984   109.365
36.6802     64.515   107.352
37.2137     65.156   105.407
37.7550     65.703   103.382
38.3041     66.242   101.162
38.8613     66.700    98.868
39.4265     67.240    96.649
40.0000     67.799    94.526
40.5818     68.283    92.347
41.1721     68.737    89.963
41.7710     69.316    87.404
42.3785     69.902    84.766
42.9949     70.395    82.078
43.6203     71.095    79.285
44.2548     71.603    76.398
44.8985     72.218    73.496
45.5515     72.602    70.606
46.2141     73.170    67.686
46.8863     73.608    64.712
47.5683     74.054    61.667
48.2602     74.625    58.467
48.9621     74.969    55.063
49.6743     75.403    51.601
50.3968     75.755    48.181
51.1299     76.213    44.696
51.8736     76.583    41.119
52.6281     76.921    37.611
53.3936     77.276    34.108
54.1702     77.667    30.476
54.9581     77.982    26.967
55.7575     78.302    23.528
56.5685     78.599    19.817
57.3914     78.756    16.496
58.2261     78.899    13.746
59.0730     79.297    10.088
59.9323     79.399     5.836
60.8040     79.517     2.550
61.6884     79.729    -0.283
62.5857     79.743    -3.523
63.4960     79.899    -6.568
64.4196     80.067    -9.543
65.3566     80.146   -12.605
66.3073     80.299   -15.532
67.2717     80.369   -18.444
68.2502     80.462   -21.242
69.2429     80.407   -23.914
70.2501     80.516   -26.523
71.2719     80.561   -29.016
72.3086     80.677   -31.398
73.3603     80.731   -33.789
74.4274     80.799   -36.199
75.5099     80.899   -38.551
76.6083     80.818   -40.865
77.7226     80.822   -43.072
78.8531     80.867   -45.178
80.0000     80.899   -47.153
81.1636     80.899   -49.010
82.3442     80.984   -50.779
83.5419     80.986   -52.451
84.7570     81.002   -54.075
85.9899     81.080   -55.619
87.2406     81.199   -57.286
88.5096     81.268   -58.899
89.7970     81.299   -60.581
91.1031     81.282   -62.325
92.4282     81.419   -64.175
93.7726     81.499   -65.788
95.1366     81.582   -67.623
96.5204     81.499   -69.513
97.9243     81.499   -71.370
99.3486     81.516   -73.134
100.794     81.409   -74.427
102.260     81.349   -75.358
103.747     81.489   -76.300
105.256     81.599   -77.474
106.787     81.682   -78.913
108.340     81.699   -80.215
109.916     81.716   -81.529
111.515     81.856   -82.842
113.137     81.893   -84.080
114.783     81.899   -85.336
116.452     81.899   -86.583
118.146     81.956   -87.901
119.865     81.999   -89.279
121.608     81.999   -89.994
123.377     82.086   -91.109
125.171     82.099   -92.257
126.992     82.136   -93.345
128.839     82.199   -94.550
130.713     82.242   -95.786
132.615     82.449   -97.030
134.543     82.399   -98.460
136.500     82.459   -99.859
138.486     82.499  -101.194
140.500     82.566  -102.739
142.544     82.549  -104.051
144.617     82.499  -105.016
146.721     82.499  -106.007
148.855     82.499  -107.151
151.020     82.466  -108.203
153.217     82.499  -109.207
155.445     82.432  -110.248
157.706     82.521  -111.327
160.000     82.513  -112.453
162.327     82.499  -113.596
164.688     82.582  -114.494
167.084     82.480  -115.152
169.514     82.483  -115.815
171.980     82.528  -116.670
174.481     82.516  -117.544
177.019     82.499  -118.355
179.594     82.415  -118.919
182.206     82.459  -119.413
184.856     82.589  -120.166
187.545     82.570  -120.941
190.273     82.586  -121.696
193.041     82.634  -122.469
195.849     82.699  -123.563
198.697     82.654  -124.584
201.587     82.624  -125.085
204.520     82.699  -125.787
207.494     82.786  -126.589
210.512     82.711  -127.559
213.574     82.649  -128.627
216.681     82.724  -129.562
219.833     82.707  -130.318
223.030     82.672  -130.928
226.274     82.711  -131.438
229.565     82.711  -131.989
232.905     82.774  -132.797
236.292     82.795  -133.878
239.729     82.732  -134.851
243.216     82.735  -135.678
246.754     82.576  -136.193
250.343     82.480  -136.511
253.984     82.446  -136.923
257.678     82.296  -137.345
261.426     82.271  -137.490
265.229     82.233  -137.532
269.087     82.180  -137.405
273.001     82.275  -137.138
276.972     82.275  -137.071
281.000     82.226  -137.124
285.088     82.291  -137.116
289.234     82.296  -137.042
293.441     82.343  -137.000
297.709     82.440  -137.063
302.040     82.439  -137.261
306.433     82.444  -137.542
310.890     82.471  -137.799
315.412     82.499  -138.110
320.000     82.533  -138.556
324.655     82.531  -138.968
329.377     82.437  -139.222
334.168     82.364  -139.327
339.028     82.279  -139.305
343.959     82.231  -139.222
348.962     82.135  -139.030
354.038     82.124  -138.711
359.188     82.063  -138.333
364.412     81.999  -137.922
369.713     81.928  -137.482
375.090     81.899  -137.023
380.546     81.899  -136.537
386.081     81.899  -136.043
391.697     81.899  -135.515
397.394     81.837  -134.972
403.175     81.799  -134.455
409.039     81.799  -133.935
414.989     81.899  -133.432
421.025     81.899  -132.980
427.149     81.899  -132.585
433.362     81.899  -132.240
439.665     81.899  -131.905
446.060     81.934  -131.561
452.548     81.921  -131.163
459.131     81.899  -130.656
465.809     81.899  -130.011
472.584     81.799  -129.253
479.458     81.799  -128.432
486.432     81.899  -127.608
493.507     81.944  -126.881
500.686     82.019  -126.344
507.968     82.099  -126.050
515.357     82.179  -125.976
522.853     82.261  -126.043
530.458     82.247  -126.139
538.174     82.142  -126.135
546.002     82.066  -125.934
553.943     81.999  -125.486
562.001     81.899  -124.817
570.175     81.899  -124.028
578.469     81.899  -123.265
586.883     81.899  -122.662
595.419     81.799  -122.258
604.080     81.799  -122.003
612.866     81.799  -121.793
621.780     81.703  -121.506
630.824     81.623  -121.046
640.000     81.531  -120.396
649.309     81.443  -119.591
658.753     81.272  -118.662
668.335     81.199  -117.602
678.056     81.111  -116.419
687.919     81.099  -115.053
697.925     81.099  -113.532
708.077     81.035  -112.016
718.376     81.170  -110.671
728.825     81.285  -109.641
739.426     81.289  -108.893
750.181     81.396  -108.218
761.093     81.309  -107.346
772.163     81.409  -106.186
783.394     81.467  -104.924
794.789     81.586  -104.000
806.349     81.712  -103.841
818.078     81.778  -104.502
829.977     81.699  -105.639
842.050     81.561  -106.720
854.298     81.196  -107.297
866.724     80.920  -107.274
879.330     80.662  -106.933
892.120     80.542  -106.452
905.097     80.421  -105.617
918.262     80.466  -104.572
931.618     80.669  -103.157
945.169     80.877  -101.244
958.917     81.128   -99.092
972.864     81.220   -97.031
987.015     81.199   -95.045
1001.37     80.967   -92.776
1015.94     80.672   -90.105
1030.71     80.399   -87.407
1045.71     80.199   -85.159
1060.92     80.092   -83.576
1076.35     79.999   -82.545
1092.00     79.799   -81.822
1107.89     79.685   -81.151
1124.00     79.599   -80.150
1140.35     79.599   -78.744
1156.94     79.862   -77.827
1173.77     80.136   -78.605
1190.84     80.371   -81.010
1208.16     80.399   -83.659
1225.73     80.305   -85.642
1243.56     80.293   -87.910
1261.65     80.397   -91.931
1280.00     80.163   -97.074
1298.62     79.597  -100.909
1317.51     79.020  -102.247
1336.67     78.724  -102.814
1356.11     78.542  -104.055
1375.84     78.399  -104.812
1395.85     78.604  -105.472
1416.15     79.076  -108.865
1436.75     79.249  -114.360
1457.65     78.865  -118.699
1478.85     78.699  -120.854
1500.36     78.774  -123.971
1522.19     78.739  -129.371
1544.33     78.396  -134.595
1566.79     78.034  -138.971
1589.58     77.750  -144.207
1612.70     77.080  -149.285
1636.16     76.404  -152.301
1659.95     75.981  -155.544
1684.10     75.350  -160.717
1708.60     74.318  -164.354
1733.45     73.498  -165.554
1758.66     72.968  -169.098
1784.24     71.978  -174.689
1810.19     70.543  -177.259
1836.52     69.283  -178.608
1863.24     67.740   179.594
1890.34     66.140  -174.787
1917.83     66.427  -172.187
1945.73     65.991   175.352
1974.03     63.239   166.229
2002.74     60.724   162.657
2031.87     58.111   133.471
2061.43     51.622    68.860
2091.41     49.800    17.794
2121.83     56.724     0.498
2152.69     60.137   -16.837
2184.01     63.092   -19.246
2215.77     65.873   -28.456
2248.00     66.343   -36.442
2280.70     67.499   -32.197
2313.87     69.676   -32.687
2347.53     71.609   -38.567
2381.68     73.003   -48.402
2416.32     73.635   -58.368
2451.46     73.967   -67.003
2487.12     73.829   -74.968
2523.30     73.367   -78.108
2560.00     73.484   -78.820
2597.24     74.057   -81.879
2635.01     74.416   -88.958
2673.34     73.464   -96.269
2712.23     72.210   -90.623
2751.68     72.912   -82.558
2791.70     73.996   -84.141
2832.31     74.016   -84.760
2873.50     74.991   -81.333
2915.30     76.443   -82.688
2957.70     77.812   -90.969
3000.72     77.942  -100.746
3044.37     77.921  -107.061
3088.65     77.810  -110.525
3133.58     77.999  -114.601
3179.16     78.188  -118.187
3225.40     78.253  -123.583
3272.31     78.290  -128.020
3319.91     78.080  -132.590
3368.20     78.008  -134.326
3417.19     78.150  -138.617
3466.89     77.999  -142.028
3517.32     77.936  -144.742
3568.48     77.937  -146.553
3620.39     78.286  -148.755
3673.05     78.499  -152.958
3726.47     78.499  -156.386
3780.67     78.522  -159.106
3835.67     78.656  -162.030
3891.46     78.870  -164.545
3948.06     79.105  -167.690
4005.49     79.574  -172.052
4063.75     79.753  -177.410
4122.86     79.738   177.527
4182.82     79.754   174.290
4243.66     80.099   170.484
4305.39     80.354   165.120
4368.01     80.349   160.248
4431.55     80.456   156.063
4496.01     80.773   151.494
4561.40     81.057   145.763
4627.75     81.256   139.605
4695.06     81.363   133.751
4763.35     81.517   127.329
4832.64     81.599   121.157
4902.93     81.758   115.136
4974.24     81.799   108.582
5046.60     81.939   102.218
5120.00     82.091    94.731
5194.47     82.018    86.879
5270.03     81.916    79.679
5346.68     81.810    72.715
5424.45     81.737    65.440
5503.35     81.537    58.695
5583.40     81.406    52.454
5664.61     81.293    46.262
5747.01     81.343    40.722
5830.60     81.461    33.394
5915.41     81.373    26.445
6001.45     81.474    18.316
6088.74     81.245    10.161
6177.30     81.191     2.913
6267.15     80.967    -5.132
6358.31     80.799   -11.665
6450.80     80.724   -18.600
6544.62     80.716   -25.331
6639.82     80.817   -32.850
6736.40     80.899   -40.845
6834.38     80.947   -48.820
6933.79     80.940   -57.656
7034.64     80.954   -66.058
7136.96     80.842   -75.394
7240.77     80.705   -83.906
7346.09     80.537   -92.768
7452.94     80.399  -100.846
7561.35     80.244  -109.429
7671.33     80.041  -117.649
7782.91     79.849  -125.795
7896.12     79.699  -133.524
8010.97     79.599  -141.620
8127.49     79.599  -150.070
8245.71     79.665  -159.494
8365.65     79.555  -169.590
8487.33     79.282   179.962
8610.78     78.879   170.541
8736.03     78.530   162.165
8863.09     78.259   154.542
8992.01     78.199   147.043
9122.80     78.328   138.813
9255.50     78.476   128.428
9390.12     78.265   118.008
9526.70     77.998   108.406
9665.27     77.874    99.461
9805.86     77.799    89.883
9948.49     77.722    79.183
10093.2     77.476    68.340
10240.0     77.112    57.612
10388.9     76.779    47.643
10540.1     76.545    37.266
10693.4     76.240    25.998
10848.9     75.757    14.743
11006.7     75.028     4.199
11166.8     74.263    -4.163
11329.2     73.669   -11.141
11494.0     73.308   -17.687
11661.2     73.199   -23.852
11830.8     73.330   -30.873
12002.9     73.537   -39.252
12177.5     73.796   -48.668
12354.6     73.958   -59.031
12534.3     74.059   -69.541
12716.6     74.217   -80.107
12901.6     74.436   -91.157
13089.2     74.824  -103.113
13279.6     75.185  -116.827
13472.8     75.482  -131.681
13668.8     75.719  -147.766
13867.6     75.742  -165.107
14069.3     75.422   178.027
14273.9     75.054   162.649
14481.5     74.804   146.787
14692.2     74.480   129.747
14905.9     73.928   112.921
15122.7     73.292    97.368
15342.7     72.810    82.179
15565.8     72.407    66.139
15792.2     71.832    49.818
16021.9     71.117    33.916
16255.0     70.299    18.155
16491.4     69.306     3.397
16731.3     68.366    -9.915
16974.7     67.438   -22.061
17221.6     66.609   -33.664
17472.1     65.711   -43.008
17726.2     64.952   -49.191
17984.0     64.889   -53.638
18245.6     65.629   -59.983
18511.0     66.730   -70.554
18780.2     67.773   -84.776
19053.4     68.789  -101.143
19330.5     69.604  -120.080
19611.7     70.089  -140.620
19897.0     70.293  -158.075
20186.4     70.083  -170.874
20480.0     69.874   176.327
20777.9     69.665   163.529
21080.1     69.456   150.731
21386.7     69.247   137.932
21697.8     69.038   125.135
22013.4     68.829   112.337
22333.6     68.620    99.539
22658.4     68.410    86.739
22988.0     68.201    73.942
23322.4     67.992    61.145
23661.6     67.783    48.346
24005.8     67.574    35.549
24355.0     67.365    22.753
24709.2     67.156     9.954
25068.6     66.947    -2.845
25433.2     66.738   -15.644
25803.2     66.528   -28.439
26178.5     66.319   -41.238
26559.3     66.110   -54.035
26945.6     65.901   -66.834
27337.5     65.692   -79.633
27735.2     65.483   -92.429
28138.6     65.274  -105.227
28547.9     65.065  -118.025
28963.1     64.855  -130.824
29384.4     64.646  -143.621
29811.8     64.437  -156.418
30245.4     64.228  -169.217
30685.3     64.019   177.984
31131.7     63.810   165.188
31584.5     63.601   152.390
32043.9     63.392   139.591
32510.0     63.182   126.794
32982.8     62.973   113.994
33462.6     62.764   101.197
33949.3     62.555    88.399
34443.1     62.346    75.601
34944.1     62.137    62.803
35452.4     61.928    50.006
35968.0     61.719    37.206
36491.2     61.509    24.409
37022.0     61.300    11.612
37560.5     61.091    -1.186
38106.8     60.882   -13.984
38661.1     60.673   -26.782
39223.4     60.464   -39.581
39793.9     60.255   -52.379
