Freq[Hz]     dBSPL  Phase[Deg]
5.00000     42.875    95.773
5.07273     42.705    95.958
5.14651     42.535    96.144
5.22137     42.366    96.330
5.29732     42.191    96.522
5.37437     42.014    96.716
5.45254     41.837    96.912
5.53185     41.657    97.111
5.61231     41.473    97.314
5.69394     41.289    97.519
5.77676     41.102    97.726
5.86079     40.911    97.939
5.94604     40.719    98.153
6.03252     40.538    98.369
6.12027     40.375    98.591
6.20929     40.212    98.814
6.29961     40.045    99.041
6.39124     39.876    99.273
6.48420     39.707    99.505
6.57851     39.533    99.743
6.67420     39.358    99.983
6.77128     39.182   100.226
6.86977     39.001   100.475
6.96969     38.821   100.725
7.07107     38.636   100.981
7.17392     38.450   101.240
7.27827     38.262   101.501
7.38413     38.069   101.768
7.49154     37.877   102.037
7.60050     37.720   102.312
7.71105     37.566   102.589
7.82321     37.380   102.871
7.93701     37.176   103.157
8.05245     36.991   103.447
8.16958     36.829   103.742
8.28841     36.665   104.041
8.40896     36.498   104.344
8.53128     36.317   104.651
8.65537     36.096   104.964
8.78126     35.886   105.279
8.90899     35.710   105.601
9.03857     35.533   105.926
9.17004     35.353   106.257
9.30342     35.172   106.592
9.43874     34.988   106.933
9.57603     34.832   107.278
9.71532     34.699   107.627
9.85663     34.520   107.983
10.0000     34.327   108.342
10.1455     34.189   108.899
10.2930     33.927   108.103
10.4427     33.366   103.998
10.5946     32.606   100.855
10.7487     31.725    98.299
10.9051     30.575    98.518
11.0637     29.515   100.919
11.2246     28.594   106.563
11.3879     28.320   112.496
11.5535     28.404   118.200
11.7216     28.986   123.303
11.8921     29.693   122.594
12.0650     30.301   119.569
12.2405     30.699   114.632
12.4186     30.768   107.953
12.5992     30.579   100.324
12.7825     30.086    91.882
12.9684     29.098    82.906
13.1570     27.526    74.247
13.3484     25.345    65.506
13.5426     22.069    63.565
13.7395     16.537    86.539
13.9394     13.948   115.359
14.1421     17.827   142.361
14.3478     23.211   156.833
14.5565     26.820   155.533
14.7683     29.192   146.347
14.9831     30.975   136.725
15.2010     32.061   126.975
15.4221     32.825   117.358
15.6464     33.110   108.182
15.8740     32.980    99.529
16.1049     32.386    91.994
16.3392     31.033    87.285
16.5768     28.706    87.290
16.8179     26.187    98.567
17.0626     25.497   129.775
17.3107     27.275   159.157
17.5625     31.081   172.297
17.8180     34.056   172.850
18.0771     36.129   169.808
18.3401     37.573   166.127
18.6068     38.446   162.902
18.8775     39.023   161.013
19.1521     39.428   160.676
19.4306     39.741   162.010
19.7133     40.143   164.843
20.0000     40.780   167.902
20.2909     41.573   170.338
20.5860     42.306   171.915
20.8855     43.083   172.695
21.1893     43.864   172.978
21.4975     44.424   173.155
21.8102     44.996   173.294
22.1274     45.512   173.257
22.4492     46.178   172.862
22.7758     46.842   171.912
23.1071     47.471   170.339
23.4432     48.010   168.355
23.7841     48.749   166.176
24.1301     49.218   164.088
24.4811     49.676   162.232
24.8372     50.139   160.733
25.1984     50.556   159.537
25.5649     51.103   158.600
25.9368     51.616   157.808
26.3141     52.302   157.042
26.6968     52.914   156.213
27.0851     53.440   155.292
27.4791     54.066   154.337
27.8788     54.693   153.458
28.2843     55.154   152.705
28.6957     55.734   152.058
29.1131     56.330   151.378
29.5365     56.858   150.542
29.9661     57.459   149.482
30.4020     57.980   148.263
30.8442     58.412   147.000
31.2929     58.951   145.735
31.7480     59.427   144.398
32.2098     60.051   142.862
32.6783     60.590   141.073
33.1536     61.084   139.170
33.6359     61.562   137.300
34.1251     62.231   135.524
34.6215     62.745   133.766
35.1250     63.349   131.912
35.6359     63.808   129.941
36.1543     64.384   127.967
36.6802     64.899   126.087
37.2137     65.456   124.265
37.7550     65.993   122.354
38.3041     66.442   120.237
38.8613     66.900   118.037
39.4265     67.374   115.901
40.0000     67.899   113.852
40.5818     68.383   111.736
41.1721     68.837   109.405
41.7710     69.316   106.890
42.3785     69.902   104.285
42.9949     70.354   101.621
43.6203     70.995    98.842
44.2548     71.418    95.958
44.8985     72.018    93.050
45.5515     72.340    90.145
46.2141     72.951    87.200
46.8863     73.308    84.192
47.5683     73.664    81.104
48.2602     74.303    77.851
48.9621     74.569    74.386
49.6743     74.939    70.853
50.3968     75.317    67.354
51.1299     75.713    63.781
51.8736     76.048    60.108
52.6281     76.350    56.496
53.3936     76.676    52.880
54.1702     77.067    49.128
54.9581     77.375    45.490
55.7575     77.628    41.914
56.5685     77.899    38.059
57.3914     78.056    34.586
58.2261     78.199    31.677
59.0730     78.528    27.852
59.9323     78.665    23.426
60.8040     78.717    19.958
61.6884     78.929    16.936
62.5857     78.943    13.500
63.4960     79.099    10.251
64.4196     79.267     7.065
65.3566     79.299     3.785
66.3073     79.405     0.632
67.2717     79.499    -2.513
68.2502     79.599    -5.552
69.2429     79.599    -8.472
70.2501     79.699   -11.337
71.2719     79.699   -14.093
72.3086     79.822   -16.747
73.3603     79.899   -19.418
74.4274     79.899   -22.116
75.5099     80.018   -24.765
76.6083     80.018   -27.385
77.7226     79.999   -29.906
78.8531     80.067   -32.337
80.0000     80.099   -34.645
81.1636     80.099   -36.847
82.3442     80.199   -38.969
83.5419     80.286   -41.007
84.7570     80.302   -43.007
85.9899     80.299   -44.939
87.2406     80.499   -47.006
88.5096     80.599   -49.033
89.7970     80.699   -51.142
91.1031     80.682   -53.326
92.4282     80.819   -55.632
93.7726     80.899   -57.715
95.1366     81.082   -60.036
96.5204     80.999   -62.429
97.9243     81.099   -64.807
99.3486     81.016   -67.109
100.794     80.932   -68.960
102.260     81.049   -70.468
103.747     81.189   -72.008
105.256     81.299   -73.801
106.787     81.382   -75.882
108.340     81.399   -77.849
109.916     81.416   -79.850
111.515     81.656   -81.875
113.137     81.793   -83.849
114.783     81.699   -85.867
116.452     81.799   -87.900
118.146     81.856   -90.029
119.865     81.899   -92.241
121.608     81.999   -93.816
123.377     81.986   -95.812
125.171     82.099   -97.861
126.992     82.113   -99.868
128.839     82.099  -102.007
130.713     82.148  -104.188
132.615     82.349  -106.383
134.543     82.299  -108.786
136.500     82.259  -111.159
138.486     82.299  -113.357
140.500     82.316  -115.821
142.544     82.266  -118.092
144.617     82.199  -119.891
146.721     82.116  -121.666
148.855     82.066  -123.608
151.020     81.916  -125.393
153.217     81.866  -127.067
155.445     81.732  -128.713
157.706     81.738  -130.337
160.000     81.685  -131.993
162.327     81.582  -133.610
164.688     81.632  -134.904
167.084     81.438  -135.956
169.514     81.440  -137.017
171.980     81.399  -138.251
174.481     81.382  -139.474
177.019     81.342  -140.639
179.594     81.215  -141.596
182.206     81.259  -142.535
184.856     81.360  -143.762
187.545     81.342  -145.010
190.273     81.361  -146.307
193.041     81.391  -147.659
195.849     81.499  -149.369
198.697     81.366  -151.085
201.587     81.324  -152.319
204.520     81.399  -153.786
207.494     81.486  -155.383
210.512     81.378  -157.222
213.574     81.349  -159.179
216.681     81.387  -160.964
219.833     81.285  -162.628
223.030     81.194  -164.196
226.274     81.155  -165.650
229.565     81.078  -167.119
232.905     81.052  -168.807
236.292     80.973  -170.718
239.729     80.812  -172.497
243.216     80.691  -174.048
246.754     80.416  -175.193
250.343     80.190  -176.067
253.984     80.036  -176.925
257.678     79.786  -177.691
261.426     79.626  -178.108
265.229     79.533  -178.361
269.087     79.426  -178.416
273.001     79.375  -178.339
276.972     79.375  -178.502
281.000     79.326  -178.862
285.088     79.299  -179.267
289.234     79.369  -179.706
293.441     79.360   179.726
297.709     79.440   178.972
302.040     79.439   178.017
306.433     79.369   176.901
310.890     79.332   175.756
315.412     79.266   174.568
320.000     79.210   173.293
324.655     79.090   172.130
329.377     78.914   171.232
334.168     78.707   170.577
339.028     78.494   170.207
343.959     78.303   170.056
348.962     78.189   170.134
354.038     78.081   170.412
359.188     77.970   170.750
364.412     77.899   171.038
369.713     77.899   171.199
375.090     77.899   171.165
380.546     77.899   170.896
386.081     77.899   170.400
391.697     77.899   169.700
397.394     77.805   168.844
403.175     77.712   167.971
409.039     77.564   167.133
414.989     77.443   166.425
421.025     77.258   165.956
427.149     77.030   165.771
433.362     76.805   165.887
439.665     76.599   166.310
446.060     76.464   166.968
452.548     76.343   167.768
459.131     76.232   168.630
465.809     76.162   169.463
472.584     75.999   170.190
479.458     75.999   170.797
486.432     75.999   171.327
493.507     75.999   171.821
500.686     75.999   172.328
507.968     75.999   172.867
515.357     75.999   173.432
522.853     76.042   173.991
530.458     76.099   174.468
538.174     76.099   174.766
546.002     76.185   174.824
553.943     76.263   174.620
562.001     76.299   174.176
570.175     76.299   173.566
578.469     76.299   172.912
586.883     76.273   172.364
595.419     76.086   172.031
604.080     75.999   171.958
612.866     75.907   172.111
621.780     75.899   172.357
630.824     75.899   172.493
640.000     75.947   172.333
649.309     75.999   171.806
658.753     75.861   170.963
668.335     75.755   169.985
678.056     75.572   169.215
687.919     75.317   168.987
697.925     75.051   169.550
708.077     74.763   170.913
718.376     74.706   172.786
728.825     74.820   174.642
739.426     74.906   175.958
750.181     75.206   176.459
761.093     75.346   176.190
772.163     75.532   175.408
783.394     75.573   174.399
794.789     75.499   173.381
806.349     75.399   172.513
818.078     75.299   171.802
829.977     75.158   171.182
842.050     74.999   170.542
854.298     74.799   169.760
866.724     74.670   168.769
879.330     74.465   167.576
892.120     74.296   166.558
905.097     74.096   166.261
918.262     74.049   166.440
931.618     74.175   166.937
945.169     74.226   167.829
958.917     74.212   169.453
972.864     73.938   172.535
987.015     73.689   177.784
1001.37     73.654  -175.232
1015.94     74.091  -168.868
1030.71     74.781  -165.326
1045.71     75.513  -164.786
1060.92     76.123  -166.293
1076.35     76.697  -168.906
1092.00     77.094  -172.407
1107.89     77.508  -176.992
1124.00     77.876   177.449
1140.35     77.959   171.391
1156.94     77.958   165.275
1173.77     77.736   159.419
1190.84     77.514   153.844
1208.16     77.225   148.702
1225.73     76.854   144.244
1243.56     76.521   140.218
1261.65     76.499   135.445
1280.00     76.401   128.959
1298.62     76.077   121.416
1317.51     75.447   114.629
1336.67     74.742   109.887
1356.11     74.278   106.172
1375.84     74.017   101.232
1395.85     73.664    94.487
1416.15     72.990    87.566
1436.75     71.937    83.207
1457.65     70.618    84.069
1478.85     70.183    90.064
1500.36     71.079    93.177
1522.19     72.097    87.655
1544.33     72.255    77.555
1566.79     71.589    69.596
1589.58     70.975    65.979
1612.70     70.691    62.494
1636.16     70.321    56.887
1659.95     69.534    52.920
1684.10     68.893    52.136
1708.60     68.641    50.416
1733.45     68.200    47.021
1758.66     67.429    45.995
1784.24     66.939    48.516
1810.19     67.124    51.143
1836.52     67.662    50.413
1863.24     68.062    46.034
1890.34     68.034    40.844
1917.83     67.802    37.178
1945.73     67.393    36.560
1974.03     67.577    38.783
2002.74     68.427    37.431
2031.87     68.870    31.897
2061.43     69.010    28.759
2091.41     69.704    25.574
2121.83     70.297    17.872
2152.69     70.336     9.348
2184.01     70.136     2.966
2215.77     70.199    -2.583
2248.00     69.982   -10.367
2280.70     68.890   -14.925
2313.87     68.473    -9.137
2347.53     69.979    -8.235
2381.68     70.993   -18.076
2416.32     71.105   -28.953
2451.46     70.799   -38.581
2487.12     70.058   -47.008
2523.30     68.747   -50.797
2560.00     67.959   -44.437
2597.24     69.638   -39.438
2635.01     71.512   -48.528
2673.34     71.919   -65.820
2712.23     70.656   -77.522
2751.68     69.696   -79.632
2791.70     69.502   -81.916
2832.31     69.731   -86.161
2873.50     69.527   -93.889
2915.30     69.039   -98.837
2957.70     68.602  -103.508
3000.72     67.887  -107.218
3044.37     67.436  -102.961
3088.65     68.527  -103.017
3133.58     68.603  -109.626
3179.16     68.449  -109.410
3225.40     69.653  -108.376
3272.31     70.826  -116.684
3319.91     71.519  -125.962
3368.20     71.752  -137.182
3417.19     71.580  -146.480
3466.89     71.337  -154.250
3517.32     71.289  -161.072
3568.48     71.135  -170.127
3620.39     70.456  -179.576
3673.05     69.315   179.101
3726.47     69.680  -176.905
3780.67     70.985   176.288
3835.67     71.165   161.779
3891.46     69.874   152.344
3948.06     68.954   152.882
4005.49     69.553   153.318
4063.75     70.464   143.045
4122.86     69.603   133.061
4182.82     69.075   129.429
4243.66     68.972   126.114
4305.39     69.236   119.908
4368.01     68.796   113.572
4431.55     68.597   110.659
4496.01     69.239   106.679
4561.40     69.646    95.915
4627.75     69.042    84.795
4695.06     68.249    80.687
4763.35     68.348    75.627
4832.64     68.328    66.082
4902.93     67.428    58.414
4974.24     66.795    54.613
5046.60     66.737    50.560
5120.00     66.424    41.851
5194.47     65.621    35.465
5270.03     64.333    35.012
5346.68     64.499    37.043
5424.45     64.868    34.052
5503.35     65.033    29.397
5583.40     65.244    24.697
5664.61     65.581    18.970
5747.01     65.444    13.528
5830.60     65.955     9.369
5915.41     66.270     0.759
6001.45     66.330    -7.138
6088.74     66.399   -15.382
6177.30     66.491   -23.671
6267.15     66.531   -31.732
6358.31     66.645   -41.828
6450.80     66.316   -53.271
6544.62     65.564   -61.866
6639.82     65.114   -67.620
6736.40     64.728   -74.871
6834.38     64.403   -79.994
6933.79     64.399   -87.082
7034.64     64.399   -95.320
7136.96     64.305  -104.635
7240.77     63.891  -115.213
7346.09     63.259  -124.104
7452.94     62.644  -134.606
7561.35     61.405  -140.359
7671.33     60.829  -143.886
7782.91     60.089  -146.461
7896.12     60.372  -147.230
8010.97     60.412  -154.660
8127.49     60.677  -159.064
8245.71     61.070  -169.706
8365.65     60.999  -179.750
8487.33     60.970   168.591
8610.78     60.415   157.156
8736.03     59.783   146.611
8863.09     58.410   140.702
8992.01     58.071   138.774
9122.80     57.831   134.533
9255.50     58.365   127.533
9390.12     58.149   117.588
9526.70     58.105   111.191
9665.27     58.208   102.392
9805.86     58.324    92.502
9948.49     58.077    80.855
10093.2     57.857    69.677
10240.0     57.177    58.223
10388.9     56.437    48.845
10540.1     55.907    43.573
10693.4     55.833    35.800
10848.9     55.686    29.896
11006.7     55.748    19.460
11166.8     55.578    10.085
11329.2     55.493    -0.494
11494.0     55.473   -13.938
11661.2     55.249   -27.047
11830.8     54.716   -38.817
12002.9     54.472   -50.726
12177.5     53.511   -63.474
12354.6     52.723   -69.287
12534.3     53.719   -75.759
12716.6     54.444   -93.940
12901.6     54.191  -113.796
13089.2     53.371  -127.702
13279.6     53.085  -140.550
13472.8     52.543  -156.653
13668.8     52.178  -169.013
13867.6     51.721   174.904
14069.3     50.337   157.831
14273.9     47.880   145.725
14481.5     46.014   146.462
14692.2     45.215   145.790
14905.9     45.761   148.446
15122.7     47.094   147.771
15342.7     47.748   134.143
15565.8     47.386   117.884
15792.2     46.357   114.208
16021.9     46.157   107.358
16255.0     44.934   105.726
16491.4     46.129   114.370
16731.3     48.400   105.432
16974.7     49.654    88.290
17221.6     49.707    68.073
17472.1     49.023    52.656
17726.2     48.576    40.601
17984.0     48.077    28.615
18245.6     47.780    12.097
18511.0     46.979    -4.124
18780.2     46.888   -20.741
19053.4     46.200   -37.248
19330.5     46.407   -56.898
19611.7     46.095   -86.304
19897.0     45.050  -110.433
20186.4     44.789  -120.960
20480.0     44.529  -131.486
20777.9     44.268  -142.012
21080.1     44.007  -152.537
21386.7     43.746  -163.064
21697.8     43.486  -173.588
22013.4     43.225   175.886
22333.6     42.964   165.361
22658.4     42.703   154.833
22988.0     42.443   144.309
23322.4     42.182   133.784
23661.6     41.921   123.257
24005.8     41.661   112.733
24355.0     41.400   102.208
24709.2     41.139    91.682
25068.6     40.878    81.156
25433.2     40.618    70.630
25803.2     40.357    60.105
26178.5     40.096    49.580
26559.3     39.835    39.055
26945.6     39.575    28.529
27337.5     39.314    18.002
27735.2     39.053     7.479
28138.6     38.793    -3.047
28547.9     38.532   -13.572
28963.1     38.271   -24.099
29384.4     38.010   -34.624
29811.8     37.750   -45.149
30245.4     37.489   -55.676
30685.3     37.228   -66.202
31131.7     36.967   -76.726
31584.5     36.707   -87.251
32043.9     36.446   -97.778
32510.0     36.185  -108.302
32982.8     35.925  -118.830
33462.6     35.664  -129.354
33949.3     35.403  -139.880
34443.1     35.142  -150.405
34944.1     34.882  -160.931
35452.4     34.621  -171.456
35968.0     34.360   178.017
36491.2     34.099   167.493
37022.0     33.839   156.967
37560.5     33.578   146.441
38106.8     33.317   135.916
38661.1     33.057   125.390
39223.4     32.796   114.864
39793.9     32.535   104.338
