Freq[Hz]     dBSPL  Phase[Deg]
5.00000     44.126    96.380
5.07273     43.948    96.576
5.14651     43.769    96.773
5.22137     43.590    96.972
5.29732     43.407    97.175
5.37437     43.221    97.382
5.45254     43.036    97.589
5.53185     42.847    97.801
5.61231     42.654    98.017
5.69394     42.461    98.234
5.77676     42.266    98.455
5.86079     42.065    98.681
5.94604     41.865    98.908
6.03252     41.675    99.138
6.12027     41.503    99.373
6.20929     41.331    99.610
6.29961     41.156    99.851
6.39124     40.978   100.097
6.48420     40.800   100.344
6.57851     40.617   100.597
6.67420     40.434   100.852
6.77128     40.249   101.110
6.86977     40.059   101.375
6.96969     39.870   101.640
7.07107     39.677   101.912
7.17392     39.481   102.187
7.27827     39.285   102.464
7.38413     39.084   102.749
7.49154     38.883   103.034
7.60050     38.717   103.326
7.71105     38.554   103.620
7.82321     38.359   103.920
7.93701     38.147   104.224
8.05245     37.953   104.532
8.16958     37.781   104.846
8.28841     37.608   105.162
8.40896     37.433   105.485
8.53128     37.243   105.811
8.65537     37.013   106.143
8.78126     36.795   106.478
8.90899     36.610   106.820
9.03857     36.425   107.165
9.17004     36.236   107.517
9.30342     36.046   107.873
9.43874     35.853   108.234
9.57603     35.688   108.601
9.71532     35.546   108.972
9.85663     35.359   109.350
10.0000     35.157   109.732
10.1455     35.010   110.312
10.2930     34.740   109.539
10.4427     34.170   105.457
10.5946     33.401   102.337
10.7487     32.511    99.806
10.9051     31.352   100.049
11.0637     30.283   102.475
11.2246     29.353   108.144
11.3879     29.071   114.103
11.5535     29.146   119.833
11.7216     29.719   124.962
11.8921     30.418   124.280
12.0650     31.017   121.281
12.2405     31.406   116.373
12.4186     31.466   109.721
12.5992     31.268   102.120
12.7825     30.767    93.707
12.9684     29.770    84.760
13.1570     28.189    76.131
13.3484     26.000    67.420
13.5426     22.715    65.509
13.7395     17.174    88.514
13.9394     14.576   117.365
14.1421     18.447   144.400
14.3478     23.821   158.903
14.5565     27.422   157.636
14.7683     29.785   148.484
14.9831     31.559   138.894
15.2010     32.636   129.178
15.4221     33.392   119.596
15.6464     33.668   110.456
15.8740     33.529   101.838
16.1049     32.926    94.339
16.3392     31.564    89.667
16.5768     29.229    89.709
16.8179     26.701   101.024
17.0626     26.002   132.270
17.3107     27.772   161.692
17.5625     31.569   174.870
17.8180     34.535   175.464
18.0771     36.599   172.463
18.3401     38.034   168.823
18.6068     38.899   165.639
18.8775     39.467   163.793
19.1521     39.863   163.499
19.4306     40.167   164.876
19.7133     40.561   167.754
20.0000     41.189   170.857
20.2909     41.973   173.338
20.5860     42.706   174.958
20.8855     43.479   175.782
21.1893     44.178   176.112
21.4975     44.794   176.334
21.8102     45.340   176.520
22.1274     45.854   176.529
22.4492     46.547   176.180
22.7758     47.161   175.277
23.1071     47.861   173.750
23.4432     48.310   171.813
23.7841     49.049   169.681
24.1301     49.518   167.639
24.4811     49.976   165.829
24.8372     50.357   164.376
25.1984     50.837   163.227
25.5649     51.403   162.336
25.9368     51.916   161.589
26.3141     52.602   160.868
26.6968     53.124   160.083
27.0851     53.736   159.207
27.4791     54.266   158.294
27.8788     54.905   157.458
28.2843     55.430   156.747
28.6957     55.934   156.142
29.1131     56.530   155.503
29.5365     57.058   154.706
29.9661     57.659   153.684
30.4020     58.082   152.502
30.8442     58.590   151.276
31.2929     59.051   150.046
31.7480     59.597   148.743
32.2098     60.155   147.239
32.6783     60.690   145.481
33.1536     61.184   143.607
33.6359     61.662   141.765
34.1251     62.249   140.016
34.6215     62.791   138.282
35.1250     63.349   136.451
35.6359     63.877   134.501
36.1543     64.384   132.546
36.6802     64.815   130.683
37.2137     65.456   128.876
37.7550     65.903   126.977
38.3041     66.442   124.870
38.8613     66.800   122.679
39.4265     67.274   120.549
40.0000     67.799   118.504
40.5818     68.283   116.390
41.1721     68.694   114.058
41.7710     69.216   111.539
42.3785     69.730   108.928
42.9949     70.154   106.255
43.6203     70.795   103.466
44.2548     71.218   100.568
44.8985     71.758    97.644
45.5515     72.140    94.720
46.2141     72.670    91.754
46.8863     73.008    88.722
47.5683     73.364    85.606
48.2602     74.003    82.324
48.9621     74.269    78.826
49.6743     74.603    75.259
50.3968     74.917    71.722
51.1299     75.351    68.109
51.8736     75.683    64.393
52.6281     75.950    60.735
53.3936     76.276    57.071
54.1702     76.575    53.267
54.9581     76.882    49.575
55.7575     77.128    45.943
56.5685     77.399    42.029
57.3914     77.556    38.494
58.2261     77.699    35.521
59.0730     77.997    31.629
59.9323     78.099    27.134
60.8040     78.121    23.593
61.6884     78.374    20.497
62.5857     78.433    16.984
63.4960     78.499    13.656
64.4196     78.667    10.388
65.3566     78.699     7.024
66.3073     78.799     3.784
67.2717     78.899     0.551
68.2502     78.962    -2.580
69.2429     78.899    -5.594
70.2501     79.016    -8.555
71.2719     78.999   -11.410
72.3086     79.122   -14.164
73.3603     79.199   -16.938
74.4274     79.199   -19.741
75.5099     79.299   -22.498
76.6083     79.299   -25.228
77.7226     79.299   -27.862
78.8531     79.367   -30.407
80.0000     79.399   -32.832
81.1636     79.362   -35.153
82.3442     79.484   -37.397
83.5419     79.486   -39.559
84.7570     79.502   -41.686
85.9899     79.599   -43.747
87.2406     79.722   -45.947
88.5096     79.799   -48.108
89.7970     79.899   -50.354
91.1031     79.882   -52.679
92.4282     80.019   -55.128
93.7726     80.199   -57.357
95.1366     80.282   -59.827
96.5204     80.256   -62.373
97.9243     80.299   -64.908
99.3486     80.216   -67.371
100.794     80.232   -69.386
102.260     80.249   -71.063
103.747     80.389   -72.775
105.256     80.499   -74.747
106.787     80.582   -77.010
108.340     80.599   -79.166
109.916     80.716   -81.360
111.515     80.856   -83.586
113.137     80.993   -85.767
114.783     80.999   -87.999
116.452     81.099   -90.253
118.146     81.156   -92.612
119.865     81.199   -95.063
121.608     81.299   -96.886
123.377     81.296   -99.139
125.171     81.399  -101.458
126.992     81.436  -103.743
128.839     81.499  -106.173
130.713     81.542  -108.656
132.615     81.736  -111.166
134.543     81.699  -113.902
136.500     81.659  -116.625
138.486     81.699  -119.146
140.500     81.716  -121.972
142.544     81.682  -124.641
144.617     81.599  -126.809
146.721     81.532  -128.954
148.855     81.466  -131.295
151.020     81.316  -133.474
153.217     81.232  -135.532
155.445     81.132  -137.549
157.706     81.105  -139.528
160.000     80.985  -141.545
162.327     80.882  -143.497
164.688     80.932  -145.075
167.084     80.723  -146.404
169.514     80.640  -147.728
171.980     80.599  -149.191
174.481     80.582  -150.595
177.019     80.485  -151.913
179.594     80.386  -153.008
182.206     80.359  -154.067
184.856     80.489  -155.390
187.545     80.428  -156.711
190.273     80.449  -158.072
193.041     80.463  -159.477
195.849     80.599  -161.233
198.697     80.466  -162.995
201.587     80.424  -164.276
204.520     80.499  -165.794
207.494     80.586  -167.448
210.512     80.522  -169.359
213.574     80.549  -171.401
216.681     80.599  -173.281
219.833     80.574  -175.067
223.030     80.505  -176.789
226.274     80.522  -178.427
229.565     80.500   179.885
232.905     80.529   177.938
236.292     80.506   175.724
239.729     80.412   173.571
243.216     80.346   171.590
246.754     80.146   169.953
250.343     79.970   168.497
253.984     79.886   166.995
257.678     79.676   165.532
261.426     79.571   164.341
265.229     79.453   163.292
269.087     79.380   162.437
273.001     79.375   161.732
276.972     79.375   160.820
281.000     79.326   159.722
285.088     79.299   158.602
289.234     79.287   157.504
293.441     79.285   156.327
297.709     79.340   155.003
302.040     79.339   153.509
306.433     79.261   151.853
310.890     79.232   150.154
315.412     79.166   148.414
320.000     79.133   146.577
324.655     79.015   144.836
329.377     78.868   143.338
334.168     78.672   142.003
339.028     78.487   140.923
343.959     78.324   140.032
348.962     78.227   139.349
354.038     78.124   138.854
359.188     78.005   138.393
364.412     77.932   137.873
369.713     77.899   137.257
375.090     77.899   136.488
380.546     77.899   135.505
386.081     77.899   134.340
391.697     77.899   132.994
397.394     77.830   131.511
403.175     77.739   130.059
409.039     77.628   128.640
414.989     77.518   127.330
421.025     77.381   126.230
427.149     77.212   125.352
433.362     77.052   124.678
439.665     76.921   124.119
446.060     76.893   123.629
452.548     76.799   123.105
459.131     76.782   122.443
465.809     76.699   121.577
472.584     76.599   120.513
479.458     76.599   119.278
486.432     76.536   117.893
493.507     76.439   116.425
500.686     76.299   114.943
507.968     76.144   113.546
515.357     75.974   112.272
522.853     75.851   111.112
530.458     75.661   110.078
538.174     75.423   109.196
546.002     75.242   108.457
553.943     75.072   107.830
562.001     74.940   107.284
570.175     74.825   106.757
578.469     74.734   106.152
586.883     74.686   105.384
595.419     74.499   104.404
604.080     74.416   103.213
612.866     74.257   101.935
621.780     74.051   100.804
630.824     73.791   100.111
640.000     73.507   100.107
649.309     73.287   100.813
658.753     73.099   101.992
668.335     73.129   103.159
678.056     73.299   103.714
687.919     73.520   103.339
697.925     73.732   102.057
708.077     73.788   100.147
718.376     73.899    97.909
728.825     73.889    95.580
739.426     73.699    93.257
750.181     73.632    90.943
761.093     73.352    88.675
772.163     73.106    86.681
783.394     72.760    85.263
794.789     72.387    84.671
806.349     72.118    84.690
818.078     72.072    84.416
829.977     72.152    82.790
842.050     72.193    79.296
854.298     71.875    74.362
866.724     71.314    69.180
879.330     70.376    65.178
892.120     69.293    64.252
905.097     68.363    67.335
918.262     68.093    72.435
931.618     68.499    76.686
945.169     69.085    79.024
958.917     69.599    80.229
972.864     69.931    81.111
987.015     70.248    81.417
1001.37     70.379    80.509
1015.94     70.279    78.639
1030.71     69.942    76.944
1045.71     69.632    75.908
1060.92     69.570    74.260
1076.35     69.670    70.076
1092.00     69.408    62.923
1107.89     68.672    54.197
1124.00     67.347    46.442
1140.35     65.243    42.560
1156.94     62.727    46.530
1173.77     60.673    62.465
1190.84     61.488    82.366
1208.16     63.988    89.254
1225.73     65.728    82.754
1243.56     66.034    72.244
1261.65     65.409    66.897
1280.00     65.185    70.479
1298.62     66.609    73.453
1317.51     68.376    66.755
1336.67     69.395    53.661
1356.11     69.691    39.594
1375.84     69.583    25.901
1395.85     69.164    11.874
1416.15     68.263    -0.853
1436.75     67.117    -8.100
1457.65     66.659   -11.321
1478.85     67.240   -19.251
1500.36     67.579   -35.197
1522.19     66.951   -54.947
1544.33     65.329   -73.560
1566.79     63.001   -87.789
1589.58     60.636   -96.443
1612.70     58.815  -102.082
1636.16     57.922  -111.551
1659.95     57.124  -129.707
1684.10     55.500  -157.712
1708.60     52.410   159.304
1733.45     48.455    84.990
1758.66     49.836    -6.290
1784.24     54.280   -64.861
1810.19     57.937  -100.920
1836.52     60.641  -133.907
1863.24     61.762  -165.557
1890.34     61.614   173.565
1917.83     62.506   162.221
1945.73     63.663   142.403
1974.03     62.567   120.683
2002.74     60.412   118.475
2031.87     60.305   120.515
2061.43     59.919   123.190
2091.41     61.562   133.085
2121.83     63.566   129.064
2152.69     65.064   124.772
2184.01     66.763   115.985
2215.77     67.473   107.864
2248.00     69.365   105.325
2280.70     71.445    89.511
2313.87     71.587    68.335
2347.53     70.391    54.396
2381.68     69.049    52.250
2416.32     69.488    54.181
2451.46     70.339    46.267
2487.12     70.064    37.197
2523.30     69.760    34.586
2560.00     70.267    29.771
2597.24     70.047    21.431
2635.01     69.588    20.970
2673.34     70.141    19.480
2712.23     70.399    14.936
2751.68     70.860    14.894
2791.70     72.488    10.059
2832.31     73.091    -2.924
2873.50     73.070   -13.993
2915.30     72.613   -23.728
2957.70     72.226   -31.772
3000.72     71.373   -37.776
3044.37     71.267   -41.379
3088.65     70.779   -47.799
3133.58     70.211   -51.578
3179.16     70.047   -54.185
3225.40     69.871   -62.158
3272.31     68.657   -69.074
3319.91     67.265   -68.824
3368.20     66.060   -63.945
3417.19     66.089   -52.808
3466.89     67.932   -47.487
3517.32     68.880   -53.079
3568.48     69.832   -56.365
3620.39     70.432   -64.149
3673.05     70.623   -69.995
3726.47     71.141   -73.052
3780.67     71.733   -80.438
3835.67     72.228   -89.624
3891.46     72.087  -101.069
3948.06     71.291  -108.631
4005.49     70.642  -112.023
4063.75     70.726  -112.778
4122.86     71.079  -121.175
4182.82     70.592  -128.924
4243.66     69.857  -133.561
4305.39     69.859  -132.341
4368.01     70.720  -140.042
4431.55     70.365  -152.949
4496.01     69.246  -161.664
4561.40     67.620  -160.524
4627.75     68.038  -158.799
4695.06     67.964  -167.090
4763.35     67.047  -171.725
4832.64     66.590  -168.245
4902.93     67.782  -168.926
4974.24     68.462  -179.977
5046.60     68.017   167.628
5120.00     66.846   162.518
5194.47     66.599   160.394
5270.03     66.216   152.156
5346.68     65.438   147.712
5424.45     64.977   144.883
5503.35     64.671   139.041
5583.40     63.918   134.271
5664.61     63.261   132.408
5747.01     63.080   130.146
5830.60     62.728   125.905
5915.41     62.282   122.553
6001.45     62.120   118.141
6088.74     61.396   113.939
6177.30     61.017   110.461
6267.15     60.397   109.323
6358.31     60.150   109.638
6450.80     60.623   108.242
6544.62     60.760   102.144
6639.82     60.382   101.659
6736.40     61.549    98.798
6834.38     62.074    86.398
6933.79     62.058    73.988
7034.64     61.186    58.188
7136.96     59.056    45.566
7240.77     55.864    43.434
7346.09     53.108    59.740
7452.94     53.258    76.874
7561.35     54.268    86.888
7671.33     56.534    91.579
7782.91     58.562    85.294
7896.12     59.205    75.203
8010.97     59.792    67.338
8127.49     60.305    55.553
8245.71     59.897    46.762
8365.65     59.411    40.930
8487.33     58.880    40.657
8610.78     59.637    38.994
8736.03     60.404    31.526
8863.09     60.716    22.585
8992.01     60.870    11.339
9122.80     60.185    -0.345
9255.50     59.229    -2.569
9390.12     59.037    -3.177
9526.70     59.462    -5.303
9665.27     59.975   -10.393
9805.86     60.496   -16.608
9948.49     60.953   -26.984
10093.2     60.767   -37.581
10240.0     60.347   -45.594
10388.9     60.364   -50.671
10540.1     60.363   -57.369
10693.4     60.093   -64.782
10848.9     59.923   -68.890
11006.7     60.383   -75.050
11166.8     60.556   -84.784
11329.2     60.303   -97.392
11494.0     59.321  -107.224
11661.2     58.067  -112.447
11830.8     57.403  -112.674
12002.9     57.498  -116.565
12177.5     57.488  -120.159
12354.6     57.565  -124.881
12534.3     57.463  -131.111
12716.6     57.176  -134.187
12901.6     57.650  -137.167
13089.2     58.544  -145.932
13279.6     58.179  -158.471
13472.8     58.281  -161.185
13668.8     58.853  -172.011
13867.6     58.440   174.257
14069.3     57.433   164.305
14273.9     56.279   161.830
14481.5     56.946   160.678
14692.2     57.543   146.854
14905.9     56.585   130.466
15122.7     55.078   121.333
15342.7     53.277   115.424
15565.8     52.096   119.887
15792.2     52.675   117.365
16021.9     52.662   105.784
16255.0     51.740    95.194
16491.4     50.695    86.211
16731.3     48.949    73.012
16974.7     45.462    72.589
17221.6     44.628    80.795
17472.1     44.014    79.089
17726.2     42.854    75.159
17984.0     42.576    77.613
18245.6     43.635    82.357
18511.0     44.096    75.685
18780.2     44.528    62.477
19053.4     44.587    43.518
19330.5     43.873    21.067
19611.7     41.014     5.869
19897.0     37.685     2.124
20186.4     37.245    -4.375
20480.0     36.804   -10.873
20777.9     36.364   -17.372
21080.1     35.924   -23.871
21386.7     35.484   -30.370
21697.8     35.043   -36.868
22013.4     34.603   -43.367
22333.6     34.163   -49.865
22658.4     33.723   -56.365
22988.0     33.283   -62.862
23322.4     32.842   -69.361
23661.6     32.402   -75.860
24005.8     31.962   -82.358
24355.0     31.522   -88.856
24709.2     31.082   -95.356
25068.6     30.641  -101.854
25433.2     30.201  -108.354
25803.2     29.761  -114.852
26178.5     29.321  -121.350
26559.3     28.881  -127.849
26945.6     28.440  -134.348
27337.5     28.000  -140.846
27735.2     27.560  -147.344
28138.6     27.120  -153.844
28547.9     26.680  -160.341
28963.1     26.239  -166.841
29384.4     25.799  -173.339
29811.8     25.359  -179.838
30245.4     24.919   173.663
30685.3     24.479   167.165
31131.7     24.038   160.667
31584.5     23.598   154.167
32043.9     23.158   147.669
32510.0     22.718   141.170
32982.8     22.278   134.670
33462.6     21.837   128.173
33949.3     21.397   121.674
34443.1     20.957   115.175
34944.1     20.517   108.677
35452.4     20.077   102.178
35968.0     19.636    95.678
36491.2     19.196    89.181
37022.0     18.756    82.682
37560.5     18.316    76.184
38106.8     17.876    69.685
38661.1     17.435    63.186
39223.4     16.995    56.688
39793.9     16.555    50.188
