Freq[Hz]     dBSPL  Phase[Deg]
5.00000     41.126    96.091
5.07273     40.964    96.228
5.14651     40.803    96.365
5.22137     40.641    96.503
5.29732     40.475    96.644
5.37437     40.306    96.788
5.45254     40.137    96.932
5.53185     39.965    97.078
5.61231     39.789    97.229
5.69394     39.613    97.380
5.77676     39.434    97.533
5.86079     39.251    97.690
5.94604     39.068    97.847
6.03252     38.895    98.007
6.12027     38.740    98.171
6.20929     38.585    98.335
6.29961     38.426    98.503
6.39124     38.265    98.674
6.48420     38.104    98.845
6.57851     37.939    99.021
6.67420     37.772    99.198
6.77128     37.604    99.377
6.86977     37.431    99.561
6.96969     37.259    99.745
7.07107     37.082    99.934
7.17392     36.904   100.125
7.27827     36.724   100.318
7.38413     36.540   100.515
7.49154     36.356   100.713
7.60050     36.207   100.917
7.71105     36.062   101.121
7.82321     35.883   101.329
7.93701     35.688   101.540
8.05245     35.511   101.754
8.16958     35.356   101.972
8.28841     35.200   102.192
8.40896     35.042   102.416
8.53128     34.869   102.642
8.65537     34.656   102.873
8.78126     34.454   103.105
8.90899     34.287   103.343
9.03857     34.118   103.583
9.17004     33.946   103.827
9.30342     33.773   104.074
9.43874     33.597   104.325
9.57603     33.449   104.580
9.71532     33.324   104.838
9.85663     33.154   105.100
10.0000     32.969   105.365
10.1455     32.839   105.826
10.2930     32.585   104.933
10.4427     32.032   100.729
10.5946     31.281    97.485
10.7487     30.408    94.829
10.9051     29.266    94.944
11.0637     28.214    97.241
11.2246     27.301   102.779
11.3879     27.035   108.604
11.5535     27.127   114.199
11.7216     27.717   119.191
11.8921     28.433   118.370
12.0650     29.049   115.230
12.2405     29.455   110.178
12.4186     29.532   103.381
12.5992     29.351    95.633
12.7825     28.866    87.070
12.9684     27.886    77.972
13.1570     26.323    69.189
13.3484     24.150    60.322
13.5426     20.882    58.252
13.7395     15.358    81.097
13.9394     12.777   109.785
14.1421     16.665   136.654
14.3478     22.056   150.990
14.5565     25.674   149.552
14.7683     28.054   140.227
14.9831     29.845   130.463
15.2010     30.939   120.569
15.4221     31.711   110.806
15.6464     32.004   101.483
15.8740     31.882    92.680
16.1049     31.296    84.993
16.3392     29.952    80.129
16.5768     27.633    79.977
16.8179     25.122    91.095
17.0626     24.440   122.143
17.3107     26.226   151.362
17.5625     30.040   164.335
17.8180     33.023   164.720
18.0771     35.105   161.507
18.3401     36.557   157.653
18.6068     37.438   154.251
18.8775     38.023   152.184
19.1521     38.437   151.667
19.4306     38.757   152.817
19.7133     39.168   155.464
20.0000     39.813   158.333
20.2909     40.614   160.577
20.5860     41.406   161.985
20.8855     42.179   162.580
21.1893     42.878   162.675
21.4975     43.494   162.662
21.8102     44.096   162.609
22.1274     44.612   162.379
22.4492     45.278   161.789
22.7758     45.961   160.644
23.1071     46.661   158.873
23.4432     47.110   156.692
23.7841     47.849   154.314
24.1301     48.408   152.027
24.4811     48.876   149.970
24.8372     49.257   148.271
25.1984     49.737   146.876
25.5649     50.303   145.739
25.9368     50.898   144.748
26.3141     51.516   143.783
26.6968     52.114   142.757
27.0851     52.736   141.639
27.4791     53.366   140.488
27.8788     54.005   139.416
28.2843     54.530   138.471
28.6957     55.034   137.634
29.1131     55.680   136.767
29.5365     56.258   135.745
29.9661     56.859   134.503
30.4020     57.382   133.104
30.8442     57.912   131.665
31.2929     58.405   130.227
31.7480     58.897   128.720
32.2098     59.551   127.018
32.6783     60.113   125.068
33.1536     60.684   123.007
33.6359     61.162   120.984
34.1251     61.849   119.060
34.6215     62.391   117.158
35.1250     62.949   115.164
35.6359     63.508   113.059
36.1543     64.084   110.956
36.6802     64.615   108.952
37.2137     65.256   107.012
37.7550     65.793   104.987
38.3041     66.242   102.762
38.8613     66.700   100.460
39.4265     67.240    98.228
40.0000     67.799    96.088
40.5818     68.365    93.887
41.1721     68.737    91.477
41.7710     69.316    88.888
42.3785     69.902    86.216
42.9949     70.395    83.489
43.6203     70.995    80.654
44.2548     71.503    77.720
44.8985     72.118    74.768
45.5515     72.440    71.823
46.2141     73.070    68.846
46.8863     73.505    65.810
47.5683     73.854    62.700
48.2602     74.503    59.431
48.9621     74.769    55.955
49.6743     75.203    52.417
50.3968     75.517    48.918
51.1299     76.013    45.352
51.8736     76.348    41.690
52.6281     76.650    38.094
53.3936     77.056    34.500
54.1702     77.367    30.775
54.9581     77.682    27.169
55.7575     78.002    23.631
56.5685     78.252    19.819
57.3914     78.456    16.394
58.2261     78.599    13.538
59.0730     78.928     9.772
59.9323     79.065     5.410
60.8040     79.117     2.010
61.6884     79.329    -0.937
62.5857     79.433    -4.293
63.4960     79.560    -7.457
64.4196     79.676   -10.553
65.3566     79.699   -13.737
66.3073     79.805   -16.788
67.2717     79.969   -19.826
68.2502     80.062   -22.752
69.2429     79.999   -25.553
70.2501     80.116   -28.292
71.2719     80.099   -30.917
72.3086     80.222   -33.432
73.3603     80.299   -35.958
74.4274     80.299   -38.504
75.5099     80.399   -40.993
76.6083     80.399   -43.446
77.7226     80.399   -45.792
78.8531     80.399   -48.040
80.0000     80.399   -50.156
81.1636     80.399   -52.157
82.3442     80.484   -54.069
83.5419     80.486   -55.886
84.7570     80.502   -57.656
85.9899     80.580   -59.347
87.2406     80.699   -61.162
88.5096     80.768   -62.924
89.7970     80.799   -64.756
91.1031     80.782   -66.650
92.4282     80.919   -68.651
93.7726     80.999   -70.415
95.1366     81.082   -72.402
96.5204     80.999   -74.445
97.9243     80.999   -76.457
99.3486     80.916   -78.375
100.794     80.832   -79.823
102.260     80.849   -80.909
103.747     80.989   -82.006
105.256     81.099   -83.337
106.787     81.182   -84.933
108.340     81.115   -86.393
109.916     81.216   -87.865
111.515     81.356   -89.337
113.137     81.393   -90.735
114.783     81.399   -92.152
116.452     81.399   -93.561
118.146     81.456   -95.042
119.865     81.499   -96.584
121.608     81.599   -97.466
123.377     81.586   -98.750
125.171     81.619  -100.070
126.992     81.713  -101.333
128.839     81.699  -102.716
130.713     81.842  -104.134
132.615     81.949  -105.565
134.543     81.999  -107.191
136.500     82.019  -108.794
138.486     82.099  -110.317
140.500     82.149  -112.074
142.544     82.099  -113.621
144.617     82.099  -114.805
146.721     82.099  -116.018
148.855     82.099  -117.408
151.020     82.116  -118.709
153.217     82.099  -119.964
155.445     82.049  -121.256
157.706     82.138  -122.587
160.000     82.128  -123.983
162.327     82.116  -125.394
164.688     82.199  -126.534
167.084     82.080  -127.448
169.514     82.083  -128.381
171.980     82.113  -129.495
174.481     82.082  -130.601
177.019     82.085  -131.635
179.594     81.986  -132.428
182.206     82.009  -133.155
184.856     82.089  -134.129
187.545     82.113  -135.097
190.273     82.099  -136.048
193.041     82.148  -137.006
195.849     82.199  -138.273
198.697     82.066  -139.467
201.587     82.111  -140.133
204.520     82.199  -140.990
207.494     82.186  -141.942
210.512     82.122  -143.065
213.574     82.149  -144.283
216.681     82.199  -145.360
219.833     82.185  -146.271
223.030     82.138  -147.051
226.274     82.177  -147.743
229.565     82.189  -148.491
232.905     82.274  -149.513
236.292     82.306  -150.832
239.729     82.292  -152.081
243.216     82.269  -153.213
246.754     82.146  -154.064
250.343     82.060  -154.766
253.984     82.046  -155.590
257.678     81.886  -156.446
261.426     81.871  -157.064
265.229     81.833  -157.586
269.087     81.780  -157.937
273.001     81.775  -158.137
276.972     81.775  -158.519
281.000     81.817  -159.015
285.088     81.799  -159.437
289.234     81.787  -159.759
293.441     81.785  -160.076
297.709     81.840  -160.460
302.040     81.839  -160.943
306.433     81.836  -161.481
310.890     81.771  -161.964
315.412     81.799  -162.459
320.000     81.833  -163.045
324.655     81.740  -163.556
329.377     81.698  -163.876
334.168     81.629  -164.025
339.028     81.533  -164.037
343.959     81.531  -164.001
348.962     81.527  -163.901
354.038     81.524  -163.748
359.188     81.505  -163.648
364.412     81.586  -163.663
369.713     81.599  -163.800
375.090     81.599  -164.068
380.546     81.692  -164.471
386.081     81.699  -164.970
391.697     81.699  -165.528
397.394     81.674  -166.103
403.175     81.599  -166.602
409.039     81.511  -166.992
414.989     81.499  -167.231
421.025     81.399  -167.289
427.149     81.299  -167.181
433.362     81.217  -166.938
439.665     81.199  -166.584
446.060     81.199  -166.183
452.548     81.199  -165.777
459.131     81.171  -165.375
465.809     81.099  -164.981
472.584     81.027  -164.593
479.458     81.099  -164.195
486.432     81.167  -163.773
493.507     81.199  -163.341
500.686     81.244  -162.940
507.968     81.314  -162.634
515.357     81.419  -162.470
522.853     81.556  -162.472
530.458     81.599  -162.637
538.174     81.656  -162.919
546.002     81.699  -163.251
553.943     81.699  -163.576
562.001     81.699  -163.847
570.175     81.769  -164.057
578.469     81.799  -164.239
586.883     81.799  -164.455
595.419     81.738  -164.761
604.080     81.799  -165.185
612.866     81.799  -165.704
621.780     81.779  -166.246
630.824     81.699  -166.721
640.000     81.643  -167.046
649.309     81.571  -167.195
658.753     81.399  -167.180
668.335     81.299  -167.015
678.056     81.230  -166.700
687.919     81.178  -166.182
697.925     81.099  -165.414
708.077     81.045  -164.436
718.376     81.167  -163.398
728.825     81.327  -162.582
739.426     81.420  -162.253
750.181     81.656  -162.503
761.093     81.699  -163.162
772.163     81.759  -163.856
783.394     81.699  -164.222
794.789     81.599  -164.076
806.349     81.534  -163.596
818.078     81.575  -163.248
829.977     81.674  -163.478
842.050     81.755  -164.434
854.298     81.672  -165.889
866.724     81.575  -167.423
879.330     81.379  -168.727
892.120     81.250  -169.412
905.097     81.160  -169.198
918.262     81.288  -168.629
931.618     81.645  -168.001
945.169     81.977  -167.308
958.917     82.315  -166.529
972.864     82.428  -165.592
987.015     82.425  -164.261
1001.37     82.257  -162.209
1015.94     82.156  -159.581
1030.71     82.211  -157.309
1045.71     82.413  -156.434
1060.92     82.618  -157.250
1076.35     82.799  -159.042
1092.00     82.801  -161.074
1107.89     82.917  -163.469
1124.00     83.142  -166.920
1140.35     83.090  -171.635
1156.94     82.849  -176.700
1173.77     82.247   179.582
1190.84     81.733   178.010
1208.16     81.446   177.445
1225.73     81.326   176.186
1243.56     81.089   174.094
1261.65     80.971   172.045
1280.00     80.899   169.991
1298.62     80.899   167.266
1317.51     80.866   164.080
1336.67     80.799   161.082
1356.11     80.841   157.733
1375.84     80.890   153.067
1395.85     80.726   147.807
1416.15     80.488   143.592
1436.75     80.328   140.568
1457.65     80.028   137.565
1478.85     79.770   135.428
1500.36     79.726   134.467
1522.19     79.972   131.947
1544.33     80.066   126.754
1566.79     79.733   121.604
1589.58     79.386   118.419
1612.70     79.050   115.907
1636.16     78.704   113.408
1659.95     78.287   112.464
1684.10     78.105   113.090
1708.60     78.303   112.759
1733.45     78.552   110.057
1758.66     78.572   106.402
1784.24     78.499   103.067
1810.19     78.406    98.990
1836.52     77.950    94.976
1863.24     77.437    93.561
1890.34     77.231    93.384
1917.83     77.406    93.233
1945.73     77.874    90.925
1974.03     77.964    83.936
2002.74     77.203    79.791
2031.87     76.978    80.163
2061.43     77.076    76.255
2091.41     76.630    72.687
2121.83     76.337    70.324
2152.69     75.811    67.226
2184.01     75.438    67.866
2215.77     75.668    65.593
2248.00     75.319    61.793
2280.70     74.873    58.782
2313.87     74.221    56.715
2347.53     73.752    55.126
2381.68     72.956    52.369
2416.32     71.972    52.378
2451.46     70.707    53.818
2487.12     69.583    63.618
2523.30     70.042    73.032
2560.00     70.576    72.768
2597.24     69.814    73.958
2635.01     69.399    83.569
2673.34     70.201    96.754
2712.23     72.473   100.834
2751.68     73.649    96.851
2791.70     74.481    90.178
2832.31     74.068    87.867
2873.50     74.508    88.451
2915.30     74.609    88.903
2957.70     75.072    89.774
3000.72     75.868    92.806
3044.37     76.941    89.122
3088.65     77.371    86.686
3133.58     77.935    83.864
3179.16     78.482    80.381
3225.40     78.653    77.283
3272.31     79.026    74.865
3319.91     79.309    72.188
3368.20     79.613    69.853
3417.19     79.780    67.856
3466.89     80.346    67.448
3517.32     81.023    64.907
3568.48     81.635    60.833
3620.39     82.207    55.849
3673.05     82.498    50.707
3726.47     82.719    45.889
3780.67     82.850    41.233
3835.67     83.030    36.667
3891.46     83.177    31.268
3948.06     82.875    26.017
4005.49     82.677    23.485
4063.75     82.680    20.825
4122.86     82.451    17.209
4182.82     82.207    16.243
4243.66     82.320    15.706
4305.39     82.571    14.658
4368.01     82.833    12.895
4431.55     83.258    10.338
4496.01     83.659     6.046
4561.40     83.885     1.365
4627.75     83.974    -3.680
4695.06     83.958    -7.648
4763.35     83.999   -11.957
4832.64     83.999   -16.293
4902.93     84.023   -20.998
4974.24     83.798   -25.923
5046.60     83.570   -29.900
5120.00     83.262   -34.149
5194.47     82.833   -36.166
5270.03     82.799   -37.938
5346.68     82.587   -41.798
5424.45     82.225   -43.957
5503.35     82.029   -45.206
5583.40     81.995   -46.592
5664.61     81.899   -48.263
5747.01     82.013   -50.053
5830.60     82.070   -53.581
5915.41     81.909   -56.052
6001.45     81.982   -59.387
6088.74     81.753   -62.811
6177.30     81.699   -65.251
6267.15     81.527   -68.777
6358.31     81.399   -70.402
6450.80     81.399   -72.539
6544.62     81.399   -74.895
6639.82     81.512   -77.693
6736.40     81.587   -81.880
6834.38     81.526   -85.790
6933.79     81.400   -90.658
7034.64     81.063   -94.860
7136.96     80.548   -98.152
7240.77     80.089   -99.269
7346.09     79.739   -99.304
7452.94     79.768   -98.758
7561.35     79.942   -99.727
7671.33     80.185  -101.523
7782.91     80.355  -104.269
7896.12     80.513  -107.063
8010.97     80.599  -111.159
8127.49     80.599  -115.168
8245.71     80.599  -119.260
8365.65     80.484  -122.998
8487.33     80.299  -126.875
8610.78     80.014  -129.694
8736.03     79.862  -131.766
8863.09     79.838  -133.488
8992.01     79.995  -136.125
9122.80     80.125  -139.882
9255.50     80.125  -144.601
9390.12     79.832  -148.538
9526.70     79.549  -151.791
9665.27     79.309  -153.967
9805.86     79.114  -155.825
9948.49     79.040  -158.029
10093.2     78.908  -160.224
10240.0     78.800  -162.294
10388.9     78.808  -164.524
10540.1     78.869  -168.022
10693.4     78.699  -172.294
10848.9     78.381  -176.361
11006.7     77.841  -179.199
11166.8     77.355  -179.822
11329.2     77.199  -179.724
11494.0     77.286   179.264
11661.2     77.299   177.167
11830.8     77.297   174.757
12002.9     77.162   172.583
12177.5     77.099   170.594
12354.6     77.044   168.539
12534.3     76.915   166.970
12716.6     76.901   165.718
12901.6     77.059   164.004
13089.2     77.208   161.294
13279.6     77.346   158.665
13472.8     77.596   155.741
13668.8     77.908   151.720
13867.6     78.125   146.909
14069.3     78.232   142.350
14273.9     78.352   138.179
14481.5     78.535   133.618
14692.2     78.712   128.144
14905.9     78.839   122.714
15122.7     79.059   117.233
15342.7     79.392   110.825
15565.8     79.629   102.860
15792.2     79.634    94.541
16021.9     79.505    86.856
16255.0     79.348    79.421
16491.4     79.249    72.367
16731.3     79.199    65.067
16974.7     79.065    56.197
17221.6     78.619    47.038
17472.1     77.984    39.636
17726.2     77.445    32.635
17984.0     76.767    24.963
18245.6     75.885    17.985
18511.0     74.955    12.343
18780.2     74.090     7.404
19053.4     73.281     2.526
19330.5     72.418    -2.658
19611.7     71.379    -7.625
19897.0     70.384   -11.166
20186.4     70.318   -15.807
20480.0     70.252   -20.448
20777.9     70.186   -25.090
21080.1     70.120   -29.731
21386.7     70.054   -34.372
21697.8     69.988   -39.013
22013.4     69.921   -43.655
22333.6     69.855   -48.296
22658.4     69.789   -52.938
22988.0     69.723   -57.578
23322.4     69.657   -62.219
23661.6     69.591   -66.861
24005.8     69.525   -71.502
24355.0     69.459   -76.142
24709.2     69.393   -80.784
25068.6     69.327   -85.426
25433.2     69.261   -90.068
25803.2     69.195   -94.708
26178.5     69.129   -99.349
26559.3     69.062  -103.990
26945.6     68.996  -108.632
27337.5     68.930  -113.273
27735.2     68.864  -117.913
28138.6     68.798  -122.555
28547.9     68.732  -127.197
28963.1     68.666  -131.838
29384.4     68.600  -136.479
29811.8     68.534  -141.120
30245.4     68.468  -145.761
30685.3     68.402  -150.403
31131.7     68.336  -155.044
31584.5     68.270  -159.685
32043.9     68.203  -164.326
32510.0     68.137  -168.968
32982.8     68.071  -173.609
33462.6     68.005  -178.250
33949.3     67.939   177.109
34443.1     67.873   172.468
34944.1     67.807   167.826
35452.4     67.741   163.185
35968.0     67.675   158.544
36491.2     67.609   153.903
37022.0     67.543   149.261
37560.5     67.477   144.620
38106.8     67.411   139.979
38661.1     67.344   135.338
39223.4     67.278   130.697
39793.9     67.212   126.055
