Freq[Hz]     dBSPL  Phase[Deg]
5.00000     42.843    97.079
5.07273     42.668    97.236
5.14651     42.494    97.392
5.22137     42.320    97.548
5.29732     42.141    97.709
5.37437     41.960    97.873
5.45254     41.778    98.038
5.53185     41.594    98.205
5.61231     41.406    98.376
5.69394     41.217    98.548
5.77676     41.026    98.723
5.86079     40.830    98.902
5.94604     40.634    99.081
6.03252     40.449    99.263
6.12027     40.281    99.450
6.20929     40.113    99.637
6.29961     39.942    99.829
6.39124     39.769   100.023
6.48420     39.595   100.218
6.57851     39.417   100.419
6.67420     39.238   100.621
6.77128     39.057   100.825
6.86977     38.872   101.035
6.96969     38.687   101.245
7.07107     38.498   101.460
7.17392     38.307   101.677
7.27827     38.115   101.897
7.38413     37.918   102.122
7.49154     37.722   102.348
7.60050     37.560   102.580
7.71105     37.402   102.812
7.82321     37.211   103.050
7.93701     37.003   103.290
8.05245     36.814   103.534
8.16958     36.647   103.782
8.28841     36.478   104.033
8.40896     36.307   104.289
8.53128     36.122   104.546
8.65537     35.896   104.809
8.78126     35.682   105.074
8.90899     35.502   105.345
9.03857     35.321   105.619
9.17004     35.136   105.897
9.30342     34.950   106.179
9.43874     34.762   106.465
9.57603     34.601   106.755
9.71532     34.464   107.049
9.85663     34.281   107.349
10.0000     34.084   107.650
10.1455     33.941   108.149
10.2930     33.675   107.294
10.4427     33.110   103.129
10.5946     32.345    99.925
10.7487     31.460    97.308
10.9051     30.305    97.465
11.0637     29.241    99.802
11.2246     28.315   105.382
11.3879     28.037   111.249
11.5535     28.116   116.888
11.7216     28.694   121.923
11.8921     29.397   121.146
12.0650     30.000   118.051
12.2405     30.394   113.045
12.4186     30.458   106.294
12.5992     30.265    98.593
12.7825     29.768    90.078
12.9684     28.775    81.028
13.1570     27.199    72.294
13.3484     25.014    63.476
13.5426     21.734    61.457
13.7395     16.196    84.353
13.9394     13.603   113.093
14.1421     17.478   140.014
14.3478     22.857   154.404
14.5565     26.462   153.020
14.7683     28.830   143.750
14.9831     30.609   134.041
15.2010     31.690   124.204
15.4221     32.449   114.499
15.6464     32.730   105.234
15.8740     32.595    96.489
16.1049     31.997    88.862
16.3392     30.640    84.059
16.5768     28.309    83.969
16.8179     25.785    95.150
17.0626     25.090   126.260
17.3107     26.864   155.544
17.5625     30.666   168.582
17.8180     33.636   169.034
18.0771     35.705   165.888
18.3401     37.144   162.102
18.6068     38.014   158.770
18.8775     38.586   156.773
19.1521     38.987   156.327
19.4306     39.295   157.549
19.7133     39.693   160.269
20.0000     40.325   163.213
20.2909     41.114   165.533
20.5860     41.885   167.013
20.8855     42.583   167.686
21.1893     43.364   167.860
21.4975     43.924   167.925
21.8102     44.496   167.952
22.1274     45.012   167.800
22.4492     45.678   167.287
22.7758     46.342   166.220
23.1071     46.971   164.526
23.4432     47.510   162.421
23.7841     48.249   160.118
24.1301     48.718   157.905
24.4811     49.176   155.922
24.8372     49.557   154.295
25.1984     50.037   152.971
25.5649     50.603   151.903
25.9368     51.116   150.979
26.3141     51.802   150.080
26.6968     52.414   149.117
27.0851     52.940   148.062
27.4791     53.566   146.971
27.8788     54.205   145.955
28.2843     54.730   145.066
28.6957     55.234   144.282
29.1131     55.880   143.464
29.5365     56.392   142.489
29.9661     56.959   141.291
30.4020     57.482   139.933
30.8442     57.990   138.532
31.2929     58.451   137.129
31.7480     58.997   135.654
32.2098     59.651   133.980
32.6783     60.113   132.055
33.1536     60.684   130.016
33.6359     61.162   128.010
34.1251     61.749   126.100
34.6215     62.345   124.209
35.1250     62.949   122.223
35.6359     63.408   120.121
36.1543     63.984   118.017
36.6802     64.515   116.009
37.2137     65.094   114.061
37.7550     65.603   112.025
38.3041     66.142   109.785
38.8613     66.500   107.464
39.4265     67.040   105.209
40.0000     67.576   103.043
40.5818     68.065   100.813
41.1721     68.537    98.369
41.7710     69.016    95.744
42.3785     69.602    93.031
42.9949     70.054    90.261
43.6203     70.695    87.380
44.2548     71.203    84.396
44.8985     71.718    81.390
45.5515     72.140    78.390
46.2141     72.670    75.353
46.8863     73.108    72.255
47.5683     73.464    69.080
48.2602     74.103    65.744
48.9621     74.369    62.197
49.6743     74.739    58.586
50.3968     75.117    55.012
51.1299     75.513    51.366
51.8736     75.883    47.624
52.6281     76.221    43.945
53.3936     76.556    40.266
54.1702     76.875    36.452
54.9581     77.182    32.757
55.7575     77.502    29.127
56.5685     77.752    25.220
57.3914     77.956    21.699
58.2261     78.099    18.744
59.0730     78.428    14.877
59.9323     78.565    10.411
60.8040     78.617     6.907
61.6884     78.829     3.853
62.5857     78.843     0.388
63.4960     78.999    -2.887
64.4196     79.167    -6.097
65.3566     79.199    -9.396
66.3073     79.305   -12.565
67.2717     79.399   -15.722
68.2502     79.499   -18.769
69.2429     79.499   -21.695
70.2501     79.599   -24.560
71.2719     79.599   -27.314
72.3086     79.722   -29.962
73.3603     79.799   -32.622
74.4274     79.799   -35.304
75.5099     79.899   -37.934
76.6083     79.899   -40.530
77.7226     79.899   -43.022
78.8531     79.967   -45.420
80.0000     79.999   -47.689
81.1636     79.962   -49.847
82.3442     79.999   -51.921
83.5419     80.086   -53.904
84.7570     80.102   -55.843
85.9899     80.180   -57.709
87.2406     80.299   -59.704
88.5096     80.399   -61.651
89.7970     80.420   -63.675
91.1031     80.482   -65.766
92.4282     80.558   -67.972
93.7726     80.699   -69.947
95.1366     80.782   -72.152
96.5204     80.799   -74.422
97.9243     80.799   -76.668
99.3486     80.716   -78.830
100.794     80.632   -80.531
102.260     80.649   -81.881
103.747     80.889   -83.252
105.256     80.999   -84.868
106.787     81.082   -86.761
108.340     80.999   -88.531
109.916     81.116   -90.324
111.515     81.256   -92.132
113.137     81.393   -93.878
114.783     81.356   -95.658
116.452     81.399   -97.444
118.146     81.456   -99.316
119.865     81.499  -101.265
121.608     81.599  -102.566
123.377     81.586  -104.282
125.171     81.699  -106.047
126.992     81.713  -107.765
128.839     81.799  -109.613
130.713     81.842  -111.503
132.615     81.949  -113.411
134.543     81.999  -115.524
136.500     81.979  -117.617
138.486     82.059  -119.574
140.500     82.066  -121.792
142.544     82.066  -123.820
144.617     81.999  -125.421
146.721     81.999  -127.026
148.855     81.999  -128.812
151.020     81.816  -130.476
153.217     81.799  -132.060
155.445     81.732  -133.648
157.706     81.755  -135.242
160.000     81.785  -136.892
162.327     81.682  -138.526
164.688     81.732  -139.849
167.084     81.623  -140.942
169.514     81.569  -142.050
171.980     81.585  -143.327
174.481     81.532  -144.580
177.019     81.485  -145.758
179.594     81.415  -146.711
182.206     81.409  -147.616
184.856     81.489  -148.779
187.545     81.499  -149.937
190.273     81.486  -151.107
193.041     81.520  -152.301
195.849     81.599  -153.823
198.697     81.466  -155.309
201.587     81.424  -156.285
204.520     81.499  -157.473
207.494     81.586  -158.773
210.512     81.522  -160.283
213.574     81.549  -161.905
216.681     81.599  -163.373
219.833     81.518  -164.708
223.030     81.472  -165.946
226.274     81.500  -167.098
229.565     81.489  -168.305
232.905     81.540  -169.782
236.292     81.540  -171.543
239.729     81.492  -173.243
243.216     81.446  -174.805
246.754     81.266  -176.057
250.343     81.140  -177.149
253.984     81.076  -178.327
257.678     80.896  -179.498
261.426     80.798   179.592
265.229     80.733   178.813
269.087     80.680   178.236
273.001     80.675   177.831
276.972     80.575   177.259
281.000     80.526   176.569
285.088     80.499   175.943
289.234     80.487   175.407
293.441     80.518   174.860
297.709     80.540   174.226
302.040     80.539   173.473
306.433     80.519   172.629
310.890     80.471   171.804
315.412     80.449   170.949
320.000     80.433   169.988
324.655     80.415   169.094
329.377     80.321   168.395
334.168     80.214   167.848
339.028     80.133   167.462
343.959     80.031   167.157
348.962     80.027   166.954
354.038     80.024   166.841
359.188     80.005   166.698
364.412     79.999   166.452
369.713     79.999   166.091
375.090     80.059   165.583
380.546     80.119   164.899
386.081     80.199   164.071
391.697     80.199   163.107
397.394     80.174   162.042
403.175     80.099   160.998
409.039     80.040   159.981
414.989     79.999   159.046
421.025     79.917   158.264
427.149     79.799   157.651
433.362     79.675   157.204
439.665     79.593   156.885
446.060     79.499   156.684
452.548     79.499   156.559
459.131     79.399   156.471
465.809     79.378   156.396
472.584     79.199   156.324
479.458     79.236   156.257
486.432     79.299   156.196
493.507     79.299   156.139
500.686     79.299   156.072
507.968     79.299   155.963
515.357     79.324   155.778
522.853     79.437   155.479
530.458     79.499   155.044
538.174     79.499   154.488
546.002     79.499   153.839
553.943     79.563   153.116
562.001     79.599   152.342
570.175     79.599   151.524
578.469     79.647   150.643
586.883     79.699   149.681
595.419     79.599   148.603
604.080     79.599   147.374
612.866     79.599   146.010
621.780     79.599   144.563
630.824     79.567   143.101
640.000     79.487   141.708
649.309     79.391   140.400
658.753     79.176   139.137
668.335     79.055   137.877
678.056     78.899   136.692
687.919     78.706   135.672
697.925     78.480   135.013
708.077     78.170   134.927
718.376     78.049   135.450
728.825     77.999   136.347
739.426     78.002   137.070
750.181     78.256   137.005
761.093     78.396   135.810
772.163     78.556   133.604
783.394     78.499   130.787
794.789     78.240   127.898
806.349     77.822   125.601
818.078     77.311   124.256
829.977     76.815   123.919
842.050     76.396   124.330
854.298     75.993   125.016
866.724     75.799   125.557
879.330     75.645   125.730
892.120     75.599   125.641
905.097     75.596   125.655
918.262     75.730   125.569
931.618     75.996   125.554
945.169     76.202   126.020
958.917     76.436   127.047
972.864     76.554   128.220
987.015     76.643   129.020
1001.37     76.519   129.420
1015.94     76.254   129.868
1030.71     75.944   130.581
1045.71     75.780   130.980
1060.92     75.654   130.188
1076.35     75.489   128.316
1092.00     75.050   126.596
1107.89     74.649   126.162
1124.00     74.508   126.596
1140.35     74.537   126.211
1156.94     74.599   124.353
1173.77     74.484   122.182
1190.84     74.437   120.580
1208.16     74.571   118.528
1225.73     74.679   114.675
1243.56     74.385   109.880
1261.65     74.015   106.508
1280.00     73.799   105.002
1298.62     73.938   102.910
1317.51     74.149    98.551
1336.67     74.199    92.954
1356.11     74.105    87.055
1375.84     74.014    80.050
1395.85     73.606    72.266
1416.15     72.922    66.629
1436.75     72.478    64.179
1457.65     72.399    60.446
1478.85     72.254    53.049
1500.36     71.519    45.283
1522.19     70.446    40.281
1544.33     69.406    37.297
1566.79     68.305    35.543
1589.58     67.304    37.093
1612.70     66.815    40.820
1636.16     66.870    42.517
1659.95     67.022    41.901
1684.10     67.230    40.083
1708.60     67.626    35.065
1733.45     67.650    24.778
1758.66     66.528    13.201
1784.24     64.590     9.488
1810.19     63.555     9.911
1836.52     62.506     4.560
1863.24     60.589     7.192
1890.34     60.783    11.754
1917.83     60.782     0.090
1945.73     58.967    -6.422
1974.03     58.632   -16.804
2002.74     56.575   -48.723
2031.87     51.322   -40.501
2061.43     53.898   -41.255
2091.41     56.319  -112.881
2121.83     54.778  -169.513
2152.69     53.843  -170.946
2184.01     56.397  -171.492
2215.77     58.653  -167.620
2248.00     62.748  -166.717
2280.70     65.153  -178.544
2313.87     67.188   173.232
2347.53     68.848   162.248
2381.68     69.834   153.235
2416.32     70.955   146.998
2451.46     72.438   139.222
2487.12     73.295   126.145
2523.30     73.000   117.146
2560.00     73.071   115.088
2597.24     74.060   111.862
2635.01     74.728   104.466
2673.34     75.071    99.192
2712.23     75.625    92.442
2751.68     75.655    86.201
2791.70     75.728    81.113
2832.31     75.867    79.211
2873.50     76.395    74.780
2915.30     76.886    71.648
2957.70     77.532    63.960
3000.72     77.533    57.516
3044.37     77.557    51.258
3088.65     77.458    47.361
3133.58     77.512    43.155
3179.16     77.759    38.746
3225.40     77.583    33.049
3272.31     77.499    29.130
3319.91     77.384    24.733
3368.20     77.143    21.877
3417.19     76.995    19.063
3466.89     76.852    17.645
3517.32     76.882    17.919
3568.48     77.358    16.949
3620.39     77.998    14.229
3673.05     78.402     9.647
3726.47     78.653     5.583
3780.67     79.004     2.150
3835.67     79.549    -3.419
3891.46     79.874   -11.051
3948.06     79.689   -18.765
4005.49     79.523   -24.775
4063.75     79.220   -30.282
4122.86     78.882   -36.388
4182.82     78.193   -41.227
4243.66     77.646   -43.568
4305.39     77.230   -45.465
4368.01     76.816   -46.878
4431.55     76.497   -47.122
4496.01     76.690   -47.513
4561.40     76.722   -50.677
4627.75     76.502   -51.824
4695.06     76.755   -51.519
4763.35     77.149   -55.253
4832.64     77.203   -59.204
4902.93     77.373   -62.836
4974.24     77.388   -67.834
5046.60     77.247   -72.307
5120.00     77.048   -75.821
5194.47     76.964   -78.819
5270.03     76.913   -83.543
5346.68     76.472   -88.089
5424.45     75.995   -89.904
5503.35     75.887   -91.140
5583.40     75.780   -93.434
5664.61     75.634   -95.300
5747.01     75.668   -97.227
5830.60     75.563   -99.019
5915.41     75.715   -99.689
6001.45     76.136  -103.053
6088.74     76.301  -106.957
6177.30     76.690  -112.231
6267.15     76.684  -119.515
6358.31     76.526  -125.563
6450.80     76.127  -131.750
6544.62     75.542  -136.219
6639.82     75.016  -138.363
6736.40     74.787  -140.185
6834.38     74.638  -141.312
6933.79     74.833  -143.464
7034.64     75.185  -147.178
7136.96     75.425  -153.737
7240.77     75.390  -161.719
7346.09     74.796  -169.948
7452.94     73.858  -176.112
7561.35     72.657  -178.496
7671.33     71.874  -176.441
7782.91     71.839  -174.642
7896.12     72.106  -175.510
8010.97     72.299  -179.298
8127.49     72.268   175.893
8245.71     71.965   170.610
8365.65     71.429   167.482
8487.33     70.929   165.743
8610.78     70.697   165.641
8736.03     70.735   164.260
8863.09     70.897   162.297
8992.01     71.099   158.250
9122.80     71.041   152.911
9255.50     70.626   147.697
9390.12     70.120   145.649
9526.70     69.782   144.346
9665.27     69.641   143.342
9805.86     69.633   142.250
9948.49     69.787   139.933
10093.2     69.699   137.200
10240.0     69.613   134.659
10388.9     69.698   132.177
10540.1     69.789   128.502
10693.4     69.603   123.479
10848.9     69.181   119.718
11006.7     68.599   117.692
11166.8     68.219   118.795
11329.2     68.562   120.794
11494.0     69.203   118.710
11661.2     69.605   114.430
11830.8     69.930   110.258
12002.9     70.231   105.344
12177.5     70.455    99.796
12354.6     70.568    94.040
12534.3     70.552    87.957
12716.6     70.499    81.932
12901.6     70.436    75.688
13089.2     70.299    69.698
13279.6     70.135    63.322
13472.8     69.948    58.477
13668.8     70.280    53.446
13867.6     70.589    43.917
14069.3     70.325    32.928
14273.9     69.715    24.808
14481.5     69.336    17.961
14692.2     69.020     9.893
14905.9     68.569     1.326
15122.7     67.993    -7.582
15342.7     67.368   -15.699
15565.8     66.742   -23.141
15792.2     66.190   -31.661
16021.9     65.284   -41.632
16255.0     63.974   -49.002
16491.4     62.674   -53.919
16731.3     61.401   -58.358
16974.7     59.860   -60.524
17221.6     58.543   -55.299
17472.1     58.941   -49.681
17726.2     59.555   -51.176
17984.0     59.741   -54.142
18245.6     60.435   -58.255
18511.0     61.110   -67.882
18780.2     61.008   -78.385
19053.4     60.846   -88.064
19330.5     60.741   -98.868
19611.7     60.571  -112.435
19897.0     60.292  -125.297
20186.4     60.037  -131.008
20480.0     59.783  -136.718
20777.9     59.528  -142.428
21080.1     59.273  -148.138
21386.7     59.018  -153.849
21697.8     58.764  -159.558
22013.4     58.509  -165.268
22333.6     58.254  -170.978
22658.4     57.999  -176.689
22988.0     57.745   177.602
23322.4     57.490   171.892
23661.6     57.235   166.183
24005.8     56.981   160.473
24355.0     56.726   154.764
24709.2     56.471   149.053
25068.6     56.216   143.343
25433.2     55.962   137.632
25803.2     55.707   131.923
26178.5     55.452   126.213
26559.3     55.197   120.503
26945.6     54.943   114.793
27337.5     54.688   109.083
27735.2     54.433   103.374
28138.6     54.178    97.663
28547.9     53.924    91.954
28963.1     53.669    86.243
29384.4     53.414    80.533
29811.8     53.159    74.823
30245.4     52.905    69.113
30685.3     52.650    63.404
31131.7     52.395    57.695
31584.5     52.140    51.984
32043.9     51.886    46.274
32510.0     51.631    40.564
32982.8     51.376    34.853
33462.6     51.121    29.144
33949.3     50.867    23.434
34443.1     50.612    17.724
34944.1     50.357    12.014
35452.4     50.103     6.304
35968.0     49.848     0.594
36491.2     49.593    -5.116
37022.0     49.338   -10.826
37560.5     49.084   -16.536
38106.8     48.829   -22.246
38661.1     48.574   -27.956
39223.4     48.319   -33.665
39793.9     48.065   -39.375
