Freq[Hz]     dBSPL  Phase[Deg]
5.00000     44.226    97.867
5.07273     44.048    98.062
5.14651     43.869    98.257
5.22137     43.690    98.454
5.29732     43.507    98.655
5.37437     43.321    98.860
5.45254     43.136    99.066
5.53185     42.947    99.276
5.61231     42.754    99.490
5.69394     42.561    99.705
5.77676     42.366    99.924
5.86079     42.165   100.148
5.94604     41.965   100.372
6.03252     41.775   100.601
6.12027     41.603   100.834
6.20929     41.431   101.069
6.29961     41.256   101.308
6.39124     41.078   101.551
6.48420     40.900   101.796
6.57851     40.717   102.047
6.67420     40.534   102.300
6.77128     40.349   102.555
6.86977     40.159   102.817
6.96969     39.970   103.081
7.07107     39.777   103.350
7.17392     39.581   103.622
7.27827     39.385   103.897
7.38413     39.184   104.179
7.49154     38.983   104.461
7.60050     38.817   104.751
7.71105     38.654   105.043
7.82321     38.459   105.340
7.93701     38.247   105.641
8.05245     38.053   105.946
8.16958     37.881   106.257
8.28841     37.708   106.571
8.40896     37.533   106.891
8.53128     37.343   107.213
8.65537     37.113   107.542
8.78126     36.895   107.875
8.90899     36.710   108.214
9.03857     36.525   108.556
9.17004     36.336   108.904
9.30342     36.146   109.257
9.43874     35.953   109.615
9.57603     35.788   109.979
9.71532     35.646   110.346
9.85663     35.459   110.721
10.0000     35.257   111.099
10.1455     35.110   111.676
10.2930     34.840   110.899
10.4427     34.270   106.813
10.5946     33.501   103.690
10.7487     32.611   101.156
10.9051     31.452   101.395
11.0637     30.383   103.817
11.2246     29.453   109.482
11.3879     29.171   115.437
11.5535     29.246   121.163
11.7216     29.819   126.288
11.8921     30.518   125.602
12.0650     31.117   122.599
12.2405     31.506   117.686
12.4186     31.566   111.030
12.5992     31.368   103.425
12.7825     30.867    95.007
12.9684     29.870    86.057
13.1570     28.289    77.423
13.3484     26.100    68.707
13.5426     22.815    66.791
13.7395     17.274    89.792
13.9394     14.676   118.638
14.1421     18.547   145.667
14.3478     23.921   160.166
14.5565     27.522   158.894
14.7683     29.885   149.737
14.9831     31.659   140.142
15.2010     32.736   130.421
15.4221     33.492   120.833
15.6464     33.768   111.688
15.8740     33.629   103.064
16.1049     33.026    95.560
16.3392     31.664    90.882
16.5768     29.329    90.918
16.8179     26.801   102.227
17.0626     26.102   133.468
17.3107     27.872   162.883
17.5625     31.669   176.056
17.8180     34.635   176.644
18.0771     36.699   173.636
18.3401     38.134   169.990
18.6068     38.999   166.799
18.8775     39.567   164.947
19.1521     39.963   164.646
19.4306     40.267   166.017
19.7133     40.661   168.888
20.0000     41.289   171.984
20.2909     42.073   174.459
20.5860     42.806   176.075
20.8855     43.579   176.895
21.1893     44.278   177.220
21.4975     44.894   177.438
21.8102     45.440   177.618
22.1274     45.954   177.621
22.4492     46.647   177.265
22.7758     47.261   176.356
23.1071     47.961   174.821
23.4432     48.410   172.876
23.7841     49.149   170.735
24.1301     49.618   168.684
24.4811     50.076   166.864
24.8372     50.457   165.401
25.1984     50.937   164.241
25.5649     51.422   163.338
25.9368     51.998   162.580
26.3141     52.702   161.846
26.6968     53.224   161.049
27.0851     53.836   160.159
27.4791     54.366   159.233
27.8788     54.993   158.383
28.2843     55.454   157.658
28.6957     56.034   157.038
29.1131     56.630   156.383
29.5365     57.158   155.571
29.9661     57.676   154.533
30.4020     58.182   153.336
30.8442     58.690   152.093
31.2929     59.151   150.846
31.7480     59.627   149.526
32.2098     60.251   148.005
32.6783     60.790   146.231
33.1536     61.284   144.340
33.6359     61.677   142.481
34.1251     62.349   140.715
34.6215     62.891   138.964
35.1250     63.449   137.116
35.6359     63.977   135.149
36.1543     64.484   133.177
36.6802     64.999   131.298
37.2137     65.556   129.474
37.7550     66.003   127.560
38.3041     66.542   125.437
38.8613     66.900   123.231
39.4265     67.440   121.087
40.0000     67.899   119.027
40.5818     68.465   116.899
41.1721     68.837   114.554
41.7710     69.316   112.022
42.3785     69.902   109.399
42.9949     70.295   106.714
43.6203     70.984   103.914
44.2548     71.403   101.006
44.8985     71.918    98.073
45.5515     72.302    95.139
46.2141     72.870    92.165
46.8863     73.208    89.126
47.5683     73.564    86.004
48.2602     74.203    82.717
48.9621     74.469    79.214
49.6743     74.803    75.643
50.3968     75.155    72.103
51.1299     75.551    68.488
51.8736     75.948    64.771
52.6281     76.221    61.112
53.3936     76.556    57.449
54.1702     76.867    53.647
54.9581     77.182    49.957
55.7575     77.428    46.328
56.5685     77.699    42.418
57.3914     77.856    38.888
58.2261     77.999    35.920
59.0730     78.328    32.035
59.9323     78.465    27.547
60.8040     78.517    24.015
61.6884     78.729    20.927
62.5857     78.743    17.424
63.4960     78.860    14.106
64.4196     78.976    10.848
65.3566     79.046     7.495
66.3073     79.199     4.267
67.2717     79.299     1.046
68.2502     79.362    -2.072
69.2429     79.299    -5.074
70.2501     79.416    -8.021
71.2719     79.461   -10.863
72.3086     79.577   -13.604
73.3603     79.631   -16.364
74.4274     79.623   -19.153
75.5099     79.799   -21.896
76.6083     79.799   -24.612
77.7226     79.799   -27.232
78.8531     79.867   -29.764
80.0000     79.844   -32.176
81.1636     79.862   -34.484
82.3442     79.899   -36.717
83.5419     79.999   -38.867
84.7570     80.002   -40.983
85.9899     80.099   -43.034
87.2406     80.299   -45.224
88.5096     80.368   -47.377
89.7970     80.399   -49.616
91.1031     80.482   -51.934
92.4282     80.558   -54.377
93.7726     80.699   -56.603
95.1366     80.882   -59.071
96.5204     80.799   -61.616
97.9243     80.899   -64.151
99.3486     80.816   -66.615
100.794     80.732   -68.635
102.260     80.849   -70.317
103.747     80.989   -72.037
105.256     81.099   -74.018
106.787     81.182   -76.293
108.340     81.199   -78.463
109.916     81.316   -80.673
111.515     81.456   -82.916
113.137     81.593   -85.117
114.783     81.599   -87.371
116.452     81.699   -89.650
118.146     81.756   -92.035
119.865     81.799   -94.514
121.608     81.899   -96.366
123.377     81.886   -98.651
125.171     81.999  -101.002
126.992     82.013  -103.321
128.839     82.099  -105.784
130.713     82.142  -108.301
132.615     82.249  -110.844
134.543     82.232  -113.613
136.500     82.259  -116.366
138.486     82.259  -118.910
140.500     82.249  -121.758
142.544     82.199  -124.447
144.617     82.099  -126.625
146.721     82.016  -128.773
148.855     81.932  -131.110
151.020     81.782  -133.276
153.217     81.699  -135.311
155.445     81.549  -137.296
157.706     81.538  -139.233
160.000     81.413  -141.196
162.327     81.299  -143.086
164.688     81.332  -144.600
167.084     81.123  -145.856
169.514     81.040  -147.100
171.980     80.985  -148.482
174.481     80.982  -149.815
177.019     80.885  -151.067
179.594     80.800  -152.098
182.206     80.797  -153.100
184.856     80.889  -154.379
187.545     80.899  -155.671
190.273     80.911  -157.017
193.041     80.963  -158.423
195.849     81.099  -160.196
198.697     80.991  -161.993
201.587     81.024  -163.326
204.520     81.099  -164.914
207.494     81.186  -166.653
210.512     81.122  -168.673
213.574     81.211  -170.842
216.681     81.299  -172.857
219.833     81.274  -174.802
223.030     81.238  -176.710
226.274     81.266  -178.553
229.565     81.255   179.537
232.905     81.318   177.353
236.292     81.306   174.888
239.729     81.222   172.457
243.216     81.180   170.189
246.754     80.966   168.261
250.343     80.790   166.502
253.984     80.696   164.709
257.678     80.466   162.976
261.426     80.335   161.535
265.229     80.233   160.277
269.087     80.126   159.264
273.001     80.075   158.451
276.972     79.984   157.483
281.000     79.926   156.372
285.088     79.899   155.283
289.234     79.887   154.247
293.441     79.835   153.154
297.709     79.840   151.924
302.040     79.839   150.525
306.433     79.827   148.962
310.890     79.771   147.348
315.412     79.699   145.677
320.000     79.657   143.893
324.655     79.573   142.190
329.377     79.398   140.718
334.168     79.222   139.406
339.028     79.033   138.348
343.959     78.874   137.485
348.962     78.758   136.843
354.038     78.674   136.403
359.188     78.591   136.009
364.412     78.499   135.558
369.713     78.499   134.996
375.090     78.499   134.247
380.546     78.599   133.234
386.081     78.679   131.975
391.697     78.699   130.459
397.394     78.655   128.722
403.175     78.599   126.959
409.039     78.505   125.169
414.989     78.418   123.455
421.025     78.281   121.972
427.149     78.105   120.779
433.362     77.940   119.908
439.665     77.771   119.305
446.060     77.699   118.943
452.548     77.699   118.687
459.131     77.699   118.368
465.809     77.699   117.821
472.584     77.671   116.947
479.458     77.778   115.701
486.432     77.899   114.066
493.507     77.899   112.095
500.686     77.894   109.894
507.968     77.784   107.652
515.357     77.654   105.507
522.853     77.523   103.530
530.458     77.299   101.822
538.174     77.009   100.469
546.002     76.785    99.435
553.943     76.608    98.601
562.001     76.463    97.825
570.175     76.382    96.937
578.469     76.299    95.793
586.883     76.264    94.353
595.419     76.090    92.651
604.080     75.970    90.761
612.866     75.820    88.849
621.780     75.619    87.112
630.824     75.399    85.722
640.000     75.203    84.776
649.309     75.055    84.183
658.753     74.899    83.695
668.335     74.936    82.972
678.056     75.049    81.734
687.919     75.174    79.784
697.925     75.299    77.131
708.077     75.292    73.964
718.376     75.299    70.451
728.825     75.209    66.811
739.426     74.933    63.236
750.181     74.726    59.872
761.093     74.359    56.813
772.163     74.062    54.151
783.394     73.709    51.833
794.789     73.358    49.755
806.349     73.044    47.799
818.078     72.796    45.644
829.977     72.587    42.986
842.050     72.364    39.612
854.298     71.975    35.536
866.724     71.543    31.052
879.330     70.910    26.490
892.120     70.153    22.802
905.097     69.249    21.254
918.262     68.466    22.516
931.618     68.145    26.909
945.169     68.467    32.870
958.917     69.554    36.707
972.864     70.754    35.630
987.015     71.678    29.585
1001.37     71.927    20.044
1015.94     71.454     9.174
1030.71     70.262    -0.468
1045.71     68.611    -6.210
1060.92     67.139    -6.585
1076.35     66.806    -5.810
1092.00     67.146   -10.941
1107.89     67.390   -24.236
1124.00     67.006   -43.891
1140.35     65.588   -68.442
1156.94     63.249   -98.663
1173.77     59.948  -136.822
1190.84     56.729   175.882
1208.16     54.784   128.231
1225.73     53.542    92.985
1243.56     51.397    77.599
1261.65     49.605    90.045
1280.00     52.415   113.780
1298.62     57.108   117.187
1317.51     60.736   103.901
1336.67     63.261    83.749
1356.11     64.835    61.301
1375.84     65.650    38.963
1395.85     65.899    18.757
1416.15     65.899     2.072
1436.75     65.899   -11.308
1457.65     65.716   -23.160
1478.85     65.511   -34.394
1500.36     65.209   -45.996
1522.19     64.619   -59.927
1544.33     63.207   -75.402
1566.79     60.594   -84.189
1589.58     58.572   -76.085
1612.70     59.956   -67.543
1636.16     61.976   -75.040
1659.95     62.625   -88.916
1684.10     61.763  -100.738
1708.60     59.320  -100.585
1733.45     58.500   -76.695
1758.66     62.345   -65.330
1784.24     64.929   -84.565
1810.19     65.123  -111.092
1836.52     64.136  -129.347
1863.24     64.363  -140.183
1890.34     65.299  -158.302
1917.83     64.647   177.960
1945.73     61.668   163.831
1974.03     58.487   163.477
2002.74     56.333   157.306
2031.87     52.800   152.935
2061.43     51.100   161.724
2091.41     52.556   152.252
2121.83     52.651   126.342
2152.69     51.039    84.449
2184.01     50.546     6.952
2215.77     54.907   -71.037
2248.00     58.329  -116.068
2280.70     59.946  -145.081
2313.87     60.235  -168.298
2347.53     59.716   176.063
2381.68     59.903   164.635
2416.32     60.074   142.514
2451.46     57.574   115.536
2487.12     51.367   125.056
2523.30     50.619  -175.141
2560.00     56.634  -158.828
2597.24     61.143  -173.947
2635.01     63.708   160.868
2673.34     65.130   132.997
2712.23     65.058    99.453
2751.68     62.171    70.306
2791.70     57.562    62.932
2832.31     54.921    72.464
2873.50     54.999    69.539
2915.30     53.136    88.929
2957.70     58.057   121.819
3000.72     62.363    97.713
3044.37     63.127    56.629
3088.65     60.940    23.948
3133.58     57.857    -0.453
3179.16     53.109     7.613
3225.40     53.738    23.537
3272.31     56.901    14.975
3319.91     59.629   -18.873
3368.20     59.258   -67.190
3417.19     57.665  -110.061
3466.89     57.601  -140.266
3517.32     58.498   168.911
3568.48     53.782   137.587
3620.39     52.580   155.561
3673.05     57.180   146.150
3726.47     58.022   119.136
3780.67     59.590    99.684
3835.67     59.501    72.998
3891.46     59.617    55.041
3948.06     59.571    33.808
4005.49     59.193    23.357
4063.75     60.108     3.188
4122.86     59.074   -16.672
4182.82     58.694   -29.282
4243.66     59.849   -38.810
4305.39     62.469   -61.915
4368.01     61.550   -97.919
4431.55     60.305  -110.286
4496.01     61.292  -123.864
4561.40     63.207  -139.420
4627.75     64.803  -166.987
4695.06     65.202   165.942
4763.35     65.263   139.706
4832.64     65.096   121.821
4902.93     65.670   100.437
4974.24     65.920    79.994
5046.60     65.978    58.313
5120.00     66.022    35.601
5194.47     65.088    15.799
5270.03     65.123     3.811
5346.68     65.779   -15.226
5424.45     66.098   -40.208
5503.35     65.468   -63.434
5583.40     64.868   -83.756
5664.61     64.639  -101.168
5747.01     64.987  -121.235
5830.60     65.391  -147.971
5915.41     64.778  -176.619
6001.45     63.585   157.842
6088.74     62.770   137.818
6177.30     62.983   115.212
6267.15     62.695    87.014
6358.31     62.092    64.681
6450.80     62.414    43.002
6544.62     62.463    14.668
6639.82     61.855   -10.579
6736.40     61.989   -32.612
6834.38     62.372   -61.285
6933.79     61.810   -94.734
7034.64     60.660  -122.901
7136.96     60.386  -152.254
7240.77     59.706   172.656
7346.09     58.847   138.397
7452.94     58.358   101.796
7561.35     57.662    63.266
7671.33     56.726    24.691
7782.91     55.823   -10.910
7896.12     55.390   -44.135
8010.97     55.283   -79.576
8127.49     55.289  -116.413
8245.71     54.910  -153.853
8365.65     54.621   171.592
8487.33     54.161   135.766
8610.78     53.422   104.088
8736.03     53.150    68.272
8863.09     52.523    28.710
8992.01     52.727    -5.532
9122.80     54.167   -47.333
9255.50     54.482   -90.592
9390.12     54.131  -126.740
9526.70     54.145  -157.360
9665.27     54.353   173.410
9805.86     55.298   143.031
9948.49     55.806   106.441
10093.2     55.475    70.066
10240.0     55.194    31.105
10388.9     53.838    -8.436
10540.1     53.257   -46.487
10693.4     52.496   -89.908
10848.9     51.729  -132.599
11006.7     51.365  -175.847
11166.8     50.254   143.150
11329.2     49.887   104.804
11494.0     49.379    62.583
11661.2     48.915    17.817
11830.8     47.718   -25.661
12002.9     46.128   -83.658
12177.5     43.077  -157.281
12354.6     43.147   133.833
12534.3     45.635    75.458
12716.6     47.250    26.205
12901.6     48.249   -15.510
13089.2     49.165   -68.305
13279.6     47.117  -147.275
13472.8     40.643    81.151
13668.8     37.581  -130.198
13867.6     40.536   106.313
14069.3     36.875    19.258
14273.9     35.531   -55.849
14481.5     39.322    63.031
14692.2     42.927  -136.688
14905.9     45.166   159.106
15122.7     47.007   105.593
15342.7     48.248    47.873
15565.8     47.338   -15.204
15792.2     45.490   -75.467
16021.9     44.523  -150.478
16255.0     41.143   123.693
16491.4     37.535  -131.802
16731.3     34.558    60.261
16974.7     38.031  -142.362
17221.6     40.558   151.709
17472.1     41.135    99.776
17726.2     40.918    40.348
17984.0     40.328   -30.154
18245.6     38.495  -104.190
18511.0     36.998  -176.142
18780.2     37.126   107.501
19053.4     37.361    26.956
19330.5     35.295   -37.078
19611.7     35.001  -168.957
19897.0     34.301   -35.103
20186.4     33.938  -135.352
20480.0     33.574   124.375
20777.9     33.211    24.112
21080.1     32.848   -76.162
21386.7     32.484  -176.403
21697.8     32.121    83.306
22013.4     31.757   -16.962
22333.6     31.394  -117.225
22658.4     31.030   142.492
22988.0     30.667    42.233
23322.4     30.304   -58.024
23661.6     29.940  -158.301
24005.8     29.577   101.442
24355.0     29.213     1.183
24709.2     28.850   -99.099
25068.6     28.486   160.633
25433.2     28.123    60.358
25803.2     27.760   -39.891
26178.5     27.396  -140.162
26559.3     27.033   119.578
26945.6     26.669    19.307
27337.5     26.306   -80.950
27735.2     25.942   178.740
28138.6     25.579    78.510
28547.9     25.216   -21.753
28963.1     24.852  -122.030
29384.4     24.489   137.709
29811.8     24.125    37.440
30245.4     23.762   -62.832
30685.3     23.398  -163.106
31131.7     23.035    96.645
31584.5     22.672    -3.627
32043.9     22.308  -103.896
32510.0     21.945   155.840
32982.8     21.581    55.558
33462.6     21.218   -44.698
33949.3     20.855  -144.970
34443.1     20.491   114.763
34944.1     20.128    14.498
35452.4     19.764   -85.764
35968.0     19.401   173.956
36491.2     19.037    73.696
37022.0     18.674   -26.566
37560.5     18.311  -126.832
38106.8     17.947   132.895
38661.1     17.584    32.632
39223.4     17.220   -67.641
39793.9     16.857  -167.911
